Time[s],Pos[m],V[m/s],mass[kg],T[N]
0.0,5000.0,0.0,24.0,9.90597364377578
0.1,4999.993963753418,-0.1207248425624586,23.99968920241762,9.886936130755226
0.2,4999.975851083072,-0.24152847562983726,23.999379002132713,10.043365474317309
0.30000000000000004,4999.945690666615,-0.3616797619279652,23.999063893914116,9.948812194181492
0.4,4999.903495449462,-0.4822244912645798,23.998751752282338,9.778375623712828
0.5,4999.849210276564,-0.6034788798787405,23.99844495805769,9.844023405292923
0.6000000000000001,4999.782813368473,-0.7244591939445686,23.998136104149403,9.87067349103644
0.7000000000000001,4999.704324007953,-0.8453279280076885,23.997826414100974,9.944104402510314
0.8,4999.61376310019,-0.9658901374647,23.99751442017505,10.099080991083003
0.9,4999.511178288833,-1.085805997051141,23.99719756389528,9.891688726332395
1.0,4999.396558707158,-1.2065855476055738,23.996887214498813,9.966929894088729
1.1,4999.269876874495,-1.3270510154536699,23.996574504428484,9.892871454581432
1.2000000000000002,4999.131133090932,-1.447824566930528,23.996264117924195,9.726480282008096
1.3,4998.980277308363,-1.5692909985313843,23.995958951903628,9.869232684838241
1.4000000000000001,4998.817304653755,-1.6901620051802109,23.995649307060155,9.92787912377855
1.5,4998.642257145348,-1.8107880734576636,23.99533782219852,10.017967498556986
1.6,4998.4551658291875,-1.931038158597971,23.99502351083541,9.963245591351535
1.7000000000000002,4998.256038128997,-2.051515755065575,23.994710916359207,9.913180604320806
1.8,4998.044852263611,-2.172201463396739,23.994399892660145,9.863370065438378
1.9000000000000001,4997.821587474461,-2.293094231229625,23.99409043175497,9.923041521599636
2.0,4997.586245869759,-2.413737773362926,23.993779098671958,9.776588888144346
2.1,4997.3388094185375,-2.5349911642490683,23.993472360505713,9.879531686682055
2.2,4997.079269106708,-2.655814983682692,23.99316239253349,9.792246656799612
2.3000000000000003,4996.807628249814,-2.7770020671051543,23.99285516310845,9.873746274449255
2.4000000000000004,4996.523885694997,-2.897848940681191,23.99254537665217,9.90826662153304
2.5,4996.228065673426,-3.0185514015628723,23.992234507128156,9.944669530710819
2.6,4995.92018301898,-3.139101597493949,23.991922495471467,10.004688728556113
2.7,4995.600257880213,-3.259401086922348,23.99160860072663,9.975110415079804
2.8000000000000003,4995.268296655425,-3.3798233184470368,23.991295633994387,9.99022100077683
2.9000000000000004,4994.924296383811,-3.5001820231467002,23.99098219317109,9.840315714829492
3.0,4994.568229026653,-3.6211650320407704,23.990673455590716,9.942396599092826
3.1,4994.2000846703,-3.7417220052062063,23.990361515246722,9.895031311077547
3.2,4993.819874771756,-3.862475876713685,23.990051060977446,9.967683622411485
3.3000000000000003,4993.427604655056,-3.982926367015352,23.98973832725907,9.939059472445063
3.4000000000000004,4993.02328355044,-4.103495635529693,23.989426491616634,10.054920706291414
3.5,4992.606929694508,-4.223581391254021,23.98911102085536,9.90329481115544
3.6,4992.1785356872215,-4.344298665361459,23.988800307320723,10.027176231068504
3.7,4991.738095800162,-4.46449898445324,23.988485707035807,9.911794166176565
3.8000000000000003,4991.285611858926,-4.585179750989805,23.98817472683591,10.047805480960793
3.9000000000000004,4990.821088217725,-4.705292981283368,23.987859479313155,9.889758460127727
4.0,4990.344520337606,-4.826064532232166,23.98754919047833,9.851654777116716
4.1000000000000005,4989.8558673866,-4.946994399674872,23.98724009713756,9.796695365072836
4.2,4989.355110019245,-5.068152860203676,23.98693272813535,9.92795466254545
4.3,4988.842264192824,-5.188763578646207,23.986621240903702,9.915513346950803
4.4,4988.317354728023,-5.309425628010959,23.98631014401539,9.844551704031675
4.5,4987.780364292852,-5.430382987315657,23.98600127353186,9.984309354580702
4.6000000000000005,4987.231307281599,-5.550757147149771,23.985688018185062,9.84849258209241
4.7,4986.670184569254,-5.671697011574483,23.985379024057412,9.949192435060068
4.800000000000001,4986.096988889021,-5.792216503108622,23.985066870495668,9.989896746944085
4.9,4985.511749772046,-5.912565745684656,23.984753439845758,10.002079378758934
5.0,4984.914478297711,-6.0328636500710395,23.98443962696865,9.872618136219186
5.1000000000000005,4984.3051500713955,-6.153700787643948,23.98412987590744,9.894782210699411
5.2,4983.683742778514,-6.274444980989184,23.98381942945363,9.958148467828897
5.300000000000001,4983.050274303323,-6.394924432689814,23.983506994898473,9.857709191780938
5.4,4982.404736970587,-6.5158221337004,23.98319771160187,9.905783031135213
5.5,4981.747119916738,-6.636518854071245,23.98288691999992,9.917238909634067
5.6000000000000005,4981.077435605979,-6.75716727168756,23.982575768972488,9.800452860633184
5.7,4980.39566213197,-6.878302121160495,23.982268282079747,9.815039217208664
5.800000000000001,4979.701778240309,-6.9993756244782235,23.981960337543516,9.903817166312418
5.9,4978.99580553407,-7.120078411120955,23.981649607620106,9.871869047980148
6.0,4978.2777559149135,-7.240913883415055,23.981339880061363,9.853601207725267
6.1000000000000005,4977.547618966316,-7.361825000261777,23.981030725651788,10.0340233478053
6.2,4976.805428550523,-7.4819832240476565,23.9807159105402,9.774659592265204
6.300000000000001,4976.051168261782,-7.603222463897999,23.98040923290516,9.89016060674824
6.4,4975.284808157695,-7.723979528885746,23.98009893145308,9.919066893294348
6.5,4974.506378400986,-7.84461551581005,23.97978772307309,9.886084701910729
6.6000000000000005,4973.715878195286,-7.965388509325019,23.979477549501564,9.862563109465466
6.7,4972.913295812329,-8.086259061346777,23.97916811391444,9.998953331524255
6.800000000000001,4972.098654840269,-8.20656028892992,23.97885439911633,10.033467457515368
6.9,4971.271990969574,-8.326717033403808,23.97853960144567,9.975598135591797
7.0,4970.433299384895,-8.44711456967724,23.978226619411313,10.037051628823475
7.1000000000000005,4969.582580888288,-8.567255270831398,23.977911709288126,10.00808285077661
7.2,4968.719842308279,-8.687516238246747,23.977597708053505,9.97111277322905
7.300000000000001,4967.845069949496,-8.807930846987295,23.97728486674633,9.895428169578814
7.4,4966.958240374268,-8.928660568513518,23.976974400025714,9.819348001463464
7.5,4966.059321988214,-9.049707064862497,23.976666320302392,9.976519973450234
7.6000000000000005,4965.148331755146,-9.170097505962378,23.97635330934559,9.763510253559831
7.7,4964.225258083954,-9.291375831157904,23.976046981518415,10.023100347583089
7.800000000000001,4963.290110742023,-9.411570916077808,23.97573250911338,9.89117380387699
7.9,4962.342916406262,-9.532315710154219,23.97542217587248,9.906594337523428
8.0,4961.3836508337245,-9.652995651304423,23.975111358815983,9.936908073204473
8.1,4960.412323615829,-9.773548616777864,23.97479959067319,9.857650108609686
8.200000000000001,4959.42892459876,-9.894431636195566,23.97449030923031,10.017897426408704
8.3,4958.433470726941,-10.014645708879335,23.974176000065697,9.9877389726524
8.4,4957.425989185411,-10.134985030959344,23.973862637115445,9.983663926702192
8.5,4956.406472889,-10.255340806579952,23.973549402018797,9.828013628902744
8.6,4955.374888579029,-10.376345304957008,23.973241050413463,9.9487317663052
8.700000000000001,4954.331229023486,-10.496845715837004,23.972928911305093,9.973239057921143
8.8,4953.275524565369,-10.617243356010544,23.97261600328624,9.92084664029541
8.9,4952.207769442735,-10.737859007108405,23.97230473906711,9.930198086936828
9.0,4951.127954732345,-10.85843511097152,23.97199318144855,10.014864745129477
9.1,4950.036100098136,-10.97865748194814,23.971678967433597,9.96793562475865
9.200000000000001,4948.932213465673,-11.099075076889294,23.971366225808705,9.892720045330108
9.3,4947.816269412076,-11.219805906003216,23.971055844054845,9.993745649968314
9.4,4946.688273374882,-11.34011474697904,23.970742292646513,9.921375192199575
9.5,4945.548231385145,-11.460724958167136,23.97043101184419,9.928361231345828
9.600000000000001,4944.396129858397,-11.581305487080432,23.97011951185654,9.948753218097746
9.700000000000001,4943.231974559334,-11.701800404094696,23.969807372075127,10.027769608129676
9.8,4942.055786278222,-11.82196512664144,23.969492753173146,9.974998641870492
9.9,4940.86757054427,-11.942349461822854,23.969179789947763,9.90016932342686
10.0,4939.667300794347,-12.063045447423299,23.968869174474563,9.888775569261908
10.100000000000001,4938.454959095825,-12.183788434007235,23.968558916477708,9.932223073458527
10.200000000000001,4937.230552188862,-12.304349615452182,23.968247295325675,9.944105281197336
10.3,4935.994091669454,-12.424860682697563,23.967935301372183,9.896432148536581
10.4,4934.745570125049,-12.545570116249207,23.967624803151963,9.910070575397578
10.5,4933.484980509236,-12.666222110604908,23.967313877029323,9.88126998582087
10.600000000000001,4932.212319712451,-12.786993736222705,23.967003854518374,9.820258444710202
10.700000000000001,4930.927569051422,-12.908019396555035,23.966695746230112,9.989090049884629
10.8,4929.630751073131,-13.028340078436255,23.96638234089013,9.94433850725694
10.9,4928.321891717506,-13.1488469440303,23.966070339619225,9.928459649706129
11.0,4927.000978389524,-13.269419525880426,23.965758836543724,9.907776591411997
11.100000000000001,4925.668003515115,-13.390077872919433,23.965447982394288,9.91005896494333
11.200000000000001,4924.322963308999,-13.510726159991195,23.96513705663592,9.912987118215524
11.3,4922.965858911924,-13.631361692012893,23.964826039007438,9.906969892450128
11.4,4921.596689733051,-13.752021796097845,23.964515210167992,9.890533538316019
11.5,4920.215451141238,-13.872749951089942,23.96420489701527,9.952994245040362
11.600000000000001,4918.8221527928445,-13.993216926580546,23.963892624172637,10.02392877849578
11.700000000000001,4917.416822574386,-14.113387351091626,23.96357812577578,9.875382335891604
11.8,4915.999444346445,-14.234177118935841,23.963268287988456,9.929289919957963
11.9,4914.569998416419,-14.354741391793171,23.96295675886342,10.009050683000103
12.0,4913.1285127287,-14.474972271362907,23.96264272726329,9.785268286916624
12.100000000000001,4911.674957285975,-14.596136495929121,23.96233571678296,10.005428408649008
12.200000000000001,4910.209331386137,-14.71638140967457,23.962021798830833,9.993436807541933
12.3,4908.731678520043,-14.836675821248884,23.961708257112356,9.944894183773515
12.4,4907.241986110782,-14.957172273894836,23.961396238407232,9.89156921061329
12.5,4905.740232955915,-15.077890734329847,23.96108589276054,9.945577184918024
12.600000000000001,4904.226419251771,-15.198383258460169,23.960773852626417,9.994196323296688
12.700000000000001,4902.700566467899,-15.318672328001645,23.960460287078313,9.954761766783161
12.8,4901.162676575204,-15.43912543562561,23.9601479587801,9.873449437174227
12.9,4899.612724430435,-15.559917370963904,23.959838181637018,10.010652404499922
13.0,4898.050721750884,-15.68013612877686,23.959524099783255,9.927568458756102
13.100000000000001,4896.476679884389,-15.800701111338974,23.95921262466866,9.911532635259327
13.200000000000001,4894.890578200059,-15.921332485778995,23.958901652674236,10.080554355721743
13.3,4893.2924486787015,-16.04125784881197,23.958585377663272,9.968081585148541
13.4,4891.682303176274,-16.16165210920612,23.958272631458907,10.013131216194981
13.5,4890.060127676732,-16.281857790305065,23.957958471833013,9.858894412951786
13.600000000000001,4888.425899447148,-16.402706712808058,23.957649151350378,9.806489482938334
13.700000000000001,4886.779575414793,-16.523773846684662,23.957341475060037,9.933803843909178
13.8,4885.121171266617,-16.644309026928898,23.957029804311706,10.0656675498813
13.9,4883.450741148508,-16.76429324293214,23.956713996370755,9.969544264554916
14.0,4881.76829257445,-16.884678147679214,23.95640120427517,9.918978597679807
14.100000000000001,4880.073794983307,-17.00527358553359,23.956089998665437,9.899659236002131
14.200000000000001,4878.367233842993,-17.125949131445047,23.95577939919611,9.918541865212724
14.3,4876.648609116055,-17.246545317681658,23.955468207288753,9.986769278735679
14.4,4874.917939037977,-17.366856152997762,23.955154874762417,9.89772447784847
14.5,4873.175219317742,-17.487538162427793,23.95484433599567,9.944349548845032
14.600000000000001,4871.420441155296,-17.608024996362598,23.95453233437834,9.899521216277646
14.700000000000001,4869.653604979449,-17.728698431279295,23.954221739239347,0.0
14.8,4867.87263513632,-17.890698431279294,23.954221739239347,0.0
14.9,4866.075465293192,-18.052698431279293,23.954221739239347,0.0
15.0,4864.262095450064,-18.21469843127929,23.954221739239347,0.0
15.100000000000001,4862.432525606937,-18.37669843127929,23.954221739239347,0.0
15.200000000000001,4860.586755763809,-18.53869843127929,23.954221739239347,0.0
15.3,4858.724785920682,-18.70069843127929,23.954221739239347,0.0
15.4,4856.846616077554,-18.862698431279288,23.954221739239347,0.0
15.5,4854.952246234427,-19.024698431279287,23.954221739239347,0.0
15.600000000000001,4853.041676391299,-19.186698431279286,23.954221739239347,0.0
15.700000000000001,4851.114906548171,-19.348698431279285,23.954221739239347,0.0
15.8,4849.171936705044,-19.510698431279284,23.954221739239347,0.0
15.9,4847.212766861916,-19.672698431279283,23.954221739239347,0.0
16.0,4845.237397018788,-19.834698431279282,23.954221739239347,0.0
16.1,4843.24582717566,-19.99669843127928,23.954221739239347,0.0
16.2,4841.238057332533,-20.15869843127928,23.954221739239347,0.0
16.3,4839.214087489405,-20.32069843127928,23.954221739239347,0.0
16.400000000000002,4837.173917646277,-20.482698431279278,23.954221739239347,0.0
16.5,4835.117547803149,-20.644698431279277,23.954221739239347,0.0
16.6,4833.044977960021,-20.806698431279276,23.954221739239347,0.0
16.7,4830.956208116893,-20.968698431279275,23.954221739239347,0.0
16.8,4828.851238273765,-21.130698431279274,23.954221739239347,0.0
16.900000000000002,4826.730068430637,-21.292698431279273,23.954221739239347,0.0
17.0,4824.592698587509,-21.454698431279272,23.954221739239347,0.0
17.1,4822.439128744381,-21.61669843127927,23.954221739239347,0.0
17.2,4820.269358901253,-21.77869843127927,23.954221739239347,0.0
17.3,4818.083389058125,-21.94069843127927,23.954221739239347,0.0
17.400000000000002,4815.881219214997,-22.10269843127927,23.954221739239347,0.0
17.5,4813.662849371869,-22.264698431279268,23.954221739239347,0.0
17.6,4811.428279528741,-22.426698431279267,23.954221739239347,0.0
17.7,4809.177509685613,-22.588698431279266,23.954221739239347,0.0
17.8,4806.9105398424845,-22.750698431279265,23.954221739239347,0.0
17.900000000000002,4804.627369999356,-22.912698431279264,23.954221739239347,0.0
18.0,4802.328000156228,-23.074698431279263,23.954221739239347,0.0
18.1,4800.0124303131,-23.23669843127926,23.954221739239347,0.0
18.2,4797.680660469971,-23.39869843127926,23.954221739239347,0.0
18.3,4795.332690626843,-23.56069843127926,23.954221739239347,0.0
18.400000000000002,4792.968520783715,-23.72269843127926,23.954221739239347,0.0
18.5,4790.588150940587,-23.884698431279258,23.954221739239347,0.0
18.6,4788.19158109746,-24.046698431279257,23.954221739239347,0.0
18.7,4785.778811254332,-24.208698431279256,23.954221739239347,0.0
18.8,4783.349841411205,-24.370698431279255,23.954221739239347,0.0
18.900000000000002,4780.904671568077,-24.532698431279254,23.954221739239347,0.0
19.0,4778.443301724949,-24.694698431279253,23.954221739239347,0.0
19.1,4775.965731881822,-24.856698431279252,23.954221739239347,0.0
19.200000000000003,4773.471962038694,-25.01869843127925,23.954221739239347,0.0
19.3,4770.961992195566,-25.18069843127925,23.954221739239347,0.0
19.400000000000002,4768.435822352439,-25.34269843127925,23.954221739239347,0.0
19.5,4765.893452509311,-25.504698431279248,23.954221739239347,0.0
19.6,4763.334882666183,-25.666698431279247,23.954221739239347,0.0
19.700000000000003,4760.760112823055,-25.828698431279246,23.954221739239347,0.0
19.8,4758.1691429799275,-25.990698431279245,23.954221739239347,0.0
19.900000000000002,4755.5619731368,-26.152698431279244,23.954221739239347,0.0
20.0,4752.938603293672,-26.314698431279243,23.954221739239347,0.0
20.1,4750.299033450544,-26.476698431279242,23.954221739239347,0.0
20.200000000000003,4747.643263607416,-26.63869843127924,23.954221739239347,0.0
20.3,4744.971293764288,-26.80069843127924,23.954221739239347,0.0
20.400000000000002,4742.28312392116,-26.96269843127924,23.954221739239347,0.0
20.5,4739.578754078032,-27.12469843127924,23.954221739239347,0.0
20.6,4736.858184234904,-27.286698431279238,23.954221739239347,0.0
20.700000000000003,4734.121414391776,-27.448698431279237,23.954221739239347,0.0
20.8,4731.368444548648,-27.610698431279236,23.954221739239347,0.0
20.900000000000002,4728.59927470552,-27.772698431279235,23.954221739239347,0.0
21.0,4725.813904862392,-27.934698431279234,23.954221739239347,0.0
21.1,4723.012335019263,-28.096698431279233,23.954221739239347,0.0
21.200000000000003,4720.194565176135,-28.25869843127923,23.954221739239347,0.0
21.3,4717.360595333007,-28.42069843127923,23.954221739239347,0.0
21.400000000000002,4714.510425489879,-28.58269843127923,23.954221739239347,0.0
21.5,4711.6440556467505,-28.74469843127923,23.954221739239347,0.0
21.6,4708.761485803622,-28.906698431279228,23.954221739239347,0.0
21.700000000000003,4705.862715960494,-29.068698431279227,23.954221739239347,0.0
21.8,4702.947746117366,-29.230698431279226,23.954221739239347,0.0
21.900000000000002,4700.016576274237,-29.392698431279225,23.954221739239347,0.0
22.0,4697.06920643111,-29.554698431279224,23.954221739239347,0.0
22.1,4694.105636587982,-29.716698431279223,23.954221739239347,0.0
22.200000000000003,4691.125866744855,-29.878698431279222,23.954221739239347,0.0
22.3,4688.129896901727,-30.04069843127922,23.954221739239347,0.0
22.400000000000002,4685.1177270585995,-30.20269843127922,23.954221739239347,0.0
22.5,4682.089357215472,-30.36469843127922,23.954221739239347,0.0
22.6,4679.044787372344,-30.52669843127922,23.954221739239347,0.0
22.700000000000003,4675.9840175292165,-30.688698431279217,23.954221739239347,0.0
22.8,4672.907047686089,-30.850698431279216,23.954221739239347,0.0
22.900000000000002,4669.813877842961,-31.012698431279215,23.954221739239347,0.0
23.0,4666.704507999833,-31.174698431279214,23.954221739239347,0.0
23.1,4663.578938156706,-31.336698431279213,23.954221739239347,0.0
23.200000000000003,4660.437168313578,-31.498698431279212,23.954221739239347,0.0
23.3,4657.27919847045,-31.66069843127921,23.954221739239347,0.0
23.400000000000002,4654.105028627322,-31.82269843127921,23.954221739239347,0.0
23.5,4650.914658784194,-31.98469843127921,23.954221739239347,0.0
23.6,4647.708088941066,-32.14669843127921,23.954221739239347,0.0
23.700000000000003,4644.485319097938,-32.30869843127921,23.954221739239347,0.0
23.8,4641.24634925481,-32.47069843127921,23.954221739239347,0.0
23.900000000000002,4637.991179411682,-32.63269843127921,23.954221739239347,0.0
24.0,4634.719809568554,-32.79469843127921,23.954221739239347,0.0
24.1,4631.432239725426,-32.95669843127921,23.954221739239347,0.0
24.200000000000003,4628.128469882298,-33.118698431279206,23.954221739239347,0.0
24.3,4624.80850003917,-33.280698431279205,23.954221739239347,0.0
24.400000000000002,4621.472330196042,-33.442698431279204,23.954221739239347,0.0
24.5,4618.119960352914,-33.6046984312792,23.954221739239347,0.0
24.6,4614.751390509786,-33.7666984312792,23.954221739239347,0.0
24.700000000000003,4611.366620666658,-33.9286984312792,23.954221739239347,0.0
24.8,4607.965650823529,-34.0906984312792,23.954221739239347,0.0
24.900000000000002,4604.548480980401,-34.2526984312792,23.954221739239347,0.0
25.0,4601.115111137273,-34.4146984312792,23.954221739239347,0.0
25.1,4597.6655412941445,-34.5766984312792,23.954221739239347,0.0
25.200000000000003,4594.199771451016,-34.7386984312792,23.954221739239347,0.0
25.3,4590.717801607888,-34.900698431279196,23.954221739239347,0.0
25.400000000000002,4587.21963176476,-35.062698431279195,23.954221739239347,0.0
25.5,4583.705261921633,-35.224698431279194,23.954221739239347,0.0
25.6,4580.174692078505,-35.38669843127919,23.954221739239347,0.0
