Time[s],Pos[m],V[m/s],mass[kg],T[N]
0.0,5000.0,0.0,24.0,9.843544756235515
0.1,4999.993950747287,-0.1209849662851711,23.999691161109215,9.968044146694925
0.2,4999.975828962267,-0.24145064391333393,23.999378416079473,9.829613524197082
0.30000000000000004,4999.9456317958375,-0.3624925969523181,23.9990700142778,9.916768788231034
0.4,4999.903348618627,-0.4831708579602224,23.998758878000316,9.81878396878264
0.5,4999.848977227367,-0.6042568797038979,23.99845081597339,9.997892634475567
0.6000000000000001,4999.782534577229,-0.7245960322913942,23.998137134454396,9.92832401426554
0.7000000000000001,4999.704043544347,-0.8452245358513133,23.997825635634424,9.881546066551003
0.8,4999.613479941587,-0.9660474306933099,23.99751560446151,10.046418081789465
0.9,4999.510868428132,-1.086182746752261,23.99720040046807,9.885197277185577
1.0,4999.3962098186885,-1.2069893533891527,23.996890254739284,9.861424277076331
1.1,4999.269465621808,-1.3278944959045234,23.996580854882758,9.913200715244454
1.2000000000000002,4999.130641725557,-1.4485833398727288,23.99626983055272,9.95743086260161
1.3,4998.979758187808,-1.5690873250657216,23.99595741851226,9.968686558013538
1.4000000000000001,4998.8168266239045,-1.6895438627606607,23.995644653327012,9.962799167723945
1.5,4998.641848206533,-1.8100243945293377,23.99533207285725,9.995112996481065
1.6,4998.454828496443,-1.9303697165293643,23.99501847854874,9.886767287139694
1.7000000000000002,4998.255751704469,-2.0511660341817355,23.994708283561263,9.878181400388511
1.8,4998.044593518226,-2.171997602044346,23.99439835795395,10.056743554651874
1.9000000000000001,4997.821389411241,-2.2920844457791674,23.994082830001243,9.941536935368381
2.0,4997.586152639935,-2.412650890579977,23.993770916628993,9.904883163498088
2.1,4997.338851612829,-2.5333695624316164,23.993460153260173,9.909950907694125
2.2,4997.0794798013485,-2.6540665779740165,23.99314923089208,9.975059705403238
2.3000000000000003,4996.8080518833995,-2.774491690630117,23.992836265750842,9.816235616593765
2.4000000000000004,4996.524548382783,-2.8955782341672944,23.99252828367786,9.886590584035833
2.5,4996.228950916047,-3.0163710117457776,23.9922180942344,9.989119384578611
2.6,4995.921295565472,-3.136735909109601,23.99190468797405,9.880695986031197
2.7,4995.601581156329,-3.2575521850561264,23.991594683472208,9.84379243837559
2.8000000000000003,4995.269777455201,-3.378521749485046,23.991285836810455,10.005051171347606
2.9000000000000004,4994.925910432102,-3.4988186215498445,23.99097193069406,9.914689138863043
3.0,4994.569994916408,-3.619491603012059,23.99066085966508,9.92078318124803
3.1,4994.202013399459,-3.740138646553349,23.990349597436964,9.940002221912337
3.2,4993.821971210595,-3.8607050409688055,23.990037732215985,9.815481831839902
3.3000000000000003,4993.429846456475,-3.981789953871956,23.989729773792824,10.001308489493569
3.4000000000000004,4993.025651968123,-4.102099722287197,23.989415985102188,9.907769405952578
3.5,4992.60940703412,-4.2227988685902735,23.989105131178196,10.000541485193319
3.6,4992.181111548707,-4.343110748787819,23.98879136655214,9.914109354997372
3.7,4991.740766887274,-4.463782390555168,23.988480313713744,9.903432623717334
3.8000000000000003,4991.288352863053,-4.584498004744476,23.98816959585527,9.956930243577418
3.9000000000000004,4990.823878455081,-4.704990064596846,23.98785719952161,10.01605298849726
4.0,4990.347367191734,-4.825235111192415,23.9875429482258,9.860640404202243
4.1000000000000005,4989.85879905636,-4.9461275079084945,23.987233572963103,10.015154228669116
4.2,4989.358173915616,-5.066375215815197,23.98691934986567,9.893853669148687
4.3,4988.845498746478,-5.187128077972661,23.98660893254463,9.909825570119247
4.4,4988.32075164718,-5.307813818733471,23.98629801410897,10.041044436829798
4.5,4987.7839633537005,-5.427951959221405,23.985982978712375,9.917610587720235
4.6000000000000005,4987.235135543026,-5.5486041648611915,23.98567181602363,9.903371292085012
4.7,4986.67423957029,-5.669315200708422,23.98536110008942,9.947473192364859
4.800000000000001,4986.101281714296,-5.7898418292210705,23.98504900046851,9.839149527124228
4.9,4985.516248640743,-5.910819553864647,23.984740299477,9.96929052572711
5.0,4984.9191449513155,-6.031254144331782,23.98442751534241,9.852778332815545
5.1000000000000005,4984.309973540601,-6.152173981705789,23.984118386750342,9.972919907082302
5.2,4983.688735218909,-6.27259236173362,23.98380548874477,9.873709807416573
5.300000000000001,4983.055434403432,-6.3934238591822865,23.983495703432634,9.843264632732224
5.4,4982.410044117633,-6.514381768697436,23.98318687333066,9.855299337374698
5.5,4981.752560576318,-6.635288969310054,23.98287766564267,9.918658837383884
5.6000000000000005,4981.082999550865,-6.755931450303411,23.982566470065336,9.94916140113782
5.7,4980.40138066352,-6.8764462065855305,23.982254317477274,9.940853745678968
5.800000000000001,4979.707708595489,-6.996995064188296,23.98194242553994,9.920571345982149
5.9,4979.001977439933,-7.1176279574343795,23.981631169958103,9.931178497040568
6.0,4978.284185233433,-7.238216082887183,23.98131958157941,9.962242016251324
6.1000000000000005,4977.554340717955,-7.358674136436416,23.98100701859014,9.920249636618447
6.2,4976.812441668777,-7.47930675763486,23.98069577310186,9.94366174871332
6.300000000000001,4976.058484265816,-7.599841211659667,23.980383793064096,10.00165669078837
6.4,4975.292485536695,-7.720133279806263,23.980069993448726,9.90815067309636
6.5,4974.5144381312675,-7.840814739457693,23.979759127562566,9.950578479655512
6.6000000000000005,4973.724331453322,-7.961318729420554,23.979446930514,9.896568070118168
6.7,4972.922163141481,-8.082047418313348,23.979136428029275,9.95759373127003
6.800000000000001,4972.107934712324,-8.202521074656197,23.97882401087885,9.884136529605179
6.9,4971.281643627354,-8.32330053589971,23.978513898430766,9.856374996637722
7.0,4970.443268834029,-8.444195242236287,23.978204656994222,9.925495968974758
7.1000000000000005,4969.592819009994,-8.564801148876128,23.977893246903502,10.009265387034699
7.2,4968.730326090378,-8.685057152311515,23.977579208567086,9.998974091312236
7.300000000000001,4967.8558054517125,-8.805355530072276,23.977265493117642,9.856148385935592
7.4,4966.969225218725,-8.926249041316966,23.976956258790953,9.893326991044512
7.5,4966.070563414175,-9.04698696066205,23.976645857994313,9.833475523645534
7.6000000000000005,4965.15981536309,-9.167973973068765,23.976337335023324,9.913125064158333
7.7,4964.236985247327,-9.288628252815862,23.97602631306682,9.896595791648851
7.800000000000001,4963.302086283334,-9.409350937941891,23.975715809712337,9.917930353246653
7.9,4962.355119526797,-9.529984103294474,23.975404636991023,9.932305869991625
8.0,4961.396092478569,-9.650556771538374,23.975093013241267,9.916044396253103
8.1,4960.425004799083,-9.771196728725341,23.974781899691408,9.975182163740246
8.200000000000001,4959.441865484148,-9.891589479431019,23.974468930708067,9.953737096238807
8.3,4958.446682448783,-10.012071137751628,23.974156634558653,9.926363332693716
8.4,4957.439445565562,-10.132666437019147,23.9738451972546,9.914999467291953
8.5,4956.420146809233,-10.253308600118189,23.97353411648914,9.90573211671629
8.6,4955.388781930581,-10.373988883644612,23.973223326484614,9.81063208666498
8.700000000000001,4954.345329215554,-10.495065329328105,23.97291552022106,9.850634889348706
8.8,4953.289777225635,-10.615974380756185,23.972606458879028,9.95477138562409
8.9,4952.222156077143,-10.736448498906652,23.972294130279028,10.044166318722137
9.0,4951.14250618952,-10.8565491617649,23.971978996934126,9.849452121705372
9.1,4950.050805649923,-10.977461541888157,23.971669972701147,9.919682584059384
9.200000000000001,4948.947028547562,-11.09808041579115,23.971358745004004,9.858768533058733
9.3,4947.831176878974,-11.2189528675148,23.97104942847082,9.931441215614123
9.4,4946.703253150306,-11.339521616060502,23.97073783184939,10.090063999039558
9.5,4945.563305660757,-11.45942808227599,23.970421258475614,10.032787316958597
9.600000000000001,4944.411355604911,-11.57957294304438,23.970106482144203,9.976783578784426
9.700000000000001,4943.247379408372,-11.699950897147914,23.969793462916844,9.898290932733039
9.8,4942.071349070216,-11.820655776810172,23.969482906377706,9.94418952632294
9.9,4940.883257845308,-11.941168631323782,23.96917090978104,10.01385402431996
10.0,4939.6831298941825,-12.061390299932107,23.968856727477213,9.930218099027215
10.100000000000001,4938.470962356634,-12.181960361277676,23.96854516923078,9.88150667084179
10.200000000000001,4937.246727678258,-12.302733117364417,23.968235139293895,9.79675877697808
10.3,4936.010398071575,-12.423858928931784,23.967927768302154,9.867746043235678
10.4,4934.761970718875,-12.544688036433541,23.96761817010171,9.911809183841907
10.5,4933.501469674318,-12.665332765262727,23.967307189430638,9.826129698716539
10.600000000000001,4932.228886309314,-12.786334446934521,23.96699889693317,9.964149993903591
10.700000000000001,4930.94423159658,-12.906759717353454,23.966686274081553,9.812050892222954
10.8,4929.647502652288,-13.02781908084584,23.96637842330331,9.895532499689807
10.9,4928.33868521449,-13.148529585950973,23.96606795330936,9.839703506422067
11.0,4927.017785105319,-13.269472509332909,23.96575923493688,9.932384626876129
11.100000000000001,4925.684810066574,-13.39002817575118,23.965447608716147,9.79929006782049
11.200000000000001,4924.339751719883,-13.511138670637715,23.965140158305754,9.91712713410468
11.3,4922.982606935242,-13.631756932630509,23.96482901078525,9.945103743082601
11.4,4921.613406188331,-13.752257915539841,23.964516985505252,9.946350338238283
11.5,4920.2321556302395,-13.872753156210946,23.964204921113623,9.961608693401605
11.600000000000001,4918.838858758705,-13.993184184126054,23.963892377994707,9.961956503767686
11.700000000000001,4917.433518884057,-14.113613218472238,23.963579823963325,9.992166266285265
11.8,4916.016142436405,-14.233915643647583,23.96326632210778,9.92553750171041
11.9,4914.586721871119,-14.354495572352445,23.962954910713982,9.956724791012359
12.0,4913.14524984733,-14.474944813155854,23.96264252082635,9.900997905092563
12.100000000000001,4911.691721298576,-14.595626072648844,23.962331879356597,9.928413985976865
12.200000000000001,4910.226130371367,-14.716192381765095,23.962020377713785,9.921619772171896
12.3,4908.748481422461,-14.836786506710428,23.961709089237825,9.971390141548103
12.4,4907.258783473442,-14.957172383112445,23.961396239228286,9.883732157796395
12.5,4905.757028672289,-15.077923550967938,23.961086139467273,9.879585295682741
12.600000000000001,4904.243197915703,-15.198691491862808,23.96077616981308,9.96203255953564
12.700000000000001,4902.717307596477,-15.31911480225818,23.960463613395465,9.801300128551889
12.8,4901.179341431864,-15.4402084025191,23.960156099919892,10.054482924639897
12.9,4899.629318768061,-15.56024478144981,23.95984064289392,9.92738685133507
13.0,4898.06726597103,-15.680811069405946,23.95952917347721,10.066655750826547
13.100000000000001,4896.493185635752,-15.800795543855417,23.95921333453169,9.952338941996517
13.200000000000001,4894.907083023968,-15.921256601585801,23.958901082249035,9.932950915455853
13.3,4893.308930287344,-16.041798041015547,23.958589438261132,9.857809682938798
13.4,4891.698707752124,-16.162652574847122,23.958280151811643,9.936420358477092
13.5,4890.076416195964,-16.28317845840795,23.957968398970785,9.953689006260847
13.600000000000001,4888.44207568241,-16.403631722412822,23.957656104330184,10.057794130308801
13.700000000000001,4886.795711596625,-16.523649901128785,23.957340543415913,9.891251556906026
13.8,4885.137310962163,-16.644362698972188,23.95703020773553,9.892183008547624
13.9,4883.46683926906,-16.76507107392407,23.956719842831074,10.041954134045115
14.0,4881.78432802417,-16.885153732012135,23.956404778892942,9.890349868420524
14.100000000000001,4880.089776899061,-17.0058686810409,23.956094471502823,9.928841288903035
14.200000000000001,4878.3831623396,-17.12642241835177,23.955782956453483,9.896264027504927
14.3,4876.664485633841,-17.247111607600104,23.95547246350802,9.914731449774488
14.4,4874.933743890493,-17.367723169784853,23.955161391151545,9.946317395444165
14.5,4873.190947610579,-17.488202338349716,23.95484932779349,9.864263193359998
14.600000000000001,4871.43608631386,-17.609023507372836,23.954539838866637,9.923020788311725
14.700000000000001,4869.669155191342,-17.729598853259702,23.954228506434127,0.0
14.8,4867.888095306016,-17.8915988532597,23.954228506434127,0.0
14.9,4866.09083542069,-18.0535988532597,23.954228506434127,0.0
15.0,4864.277375535365,-18.2155988532597,23.954228506434127,0.0
15.100000000000001,4862.447715650039,-18.3775988532597,23.954228506434127,0.0
15.200000000000001,4860.601855764713,-18.539598853259697,23.954228506434127,0.0
15.3,4858.739795879387,-18.701598853259696,23.954228506434127,0.0
15.4,4856.861535994061,-18.863598853259695,23.954228506434127,0.0
15.5,4854.9670761087355,-19.025598853259694,23.954228506434127,0.0
15.600000000000001,4853.0564162234095,-19.187598853259693,23.954228506434127,0.0
15.700000000000001,4851.129556338084,-19.349598853259693,23.954228506434127,0.0
15.8,4849.186496452758,-19.51159885325969,23.954228506434127,0.0
15.9,4847.227236567432,-19.67359885325969,23.954228506434127,0.0
16.0,4845.251776682106,-19.83559885325969,23.954228506434127,0.0
16.1,4843.26011679678,-19.99759885325969,23.954228506434127,0.0
16.2,4841.2522569114535,-20.159598853259688,23.954228506434127,0.0
16.3,4839.228197026127,-20.321598853259687,23.954228506434127,0.0
16.400000000000002,4837.187937140801,-20.483598853259686,23.954228506434127,0.0
16.5,4835.131477255475,-20.645598853259685,23.954228506434127,0.0
16.6,4833.058817370149,-20.807598853259684,23.954228506434127,0.0
16.7,4830.969957484823,-20.969598853259683,23.954228506434127,0.0
16.8,4828.8648975994965,-21.131598853259682,23.954228506434127,0.0
16.900000000000002,4826.74363771417,-21.29359885325968,23.954228506434127,0.0
17.0,4824.606177828844,-21.45559885325968,23.954228506434127,0.0
17.1,4822.452517943518,-21.61759885325968,23.954228506434127,0.0
17.2,4820.282658058191,-21.779598853259678,23.954228506434127,0.0
17.3,4818.096598172865,-21.941598853259677,23.954228506434127,0.0
17.400000000000002,4815.894338287539,-22.103598853259676,23.954228506434127,0.0
17.5,4813.675878402212,-22.265598853259675,23.954228506434127,0.0
17.6,4811.441218516887,-22.427598853259674,23.954228506434127,0.0
17.7,4809.190358631561,-22.589598853259673,23.954228506434127,0.0
17.8,4806.923298746236,-22.751598853259672,23.954228506434127,0.0
17.900000000000002,4804.64003886091,-22.91359885325967,23.954228506434127,0.0
18.0,4802.340578975584,-23.07559885325967,23.954228506434127,0.0
18.1,4800.024919090259,-23.23759885325967,23.954228506434127,0.0
18.2,4797.693059204933,-23.39959885325967,23.954228506434127,0.0
18.3,4795.344999319607,-23.561598853259667,23.954228506434127,0.0
18.400000000000002,4792.9807394342815,-23.723598853259666,23.954228506434127,0.0
18.5,4790.600279548956,-23.885598853259665,23.954228506434127,0.0
18.6,4788.20361966363,-24.047598853259665,23.954228506434127,0.0
18.7,4785.790759778304,-24.209598853259664,23.954228506434127,0.0
18.8,4783.361699892978,-24.371598853259663,23.954228506434127,0.0
18.900000000000002,4780.916440007652,-24.53359885325966,23.954228506434127,0.0
19.0,4778.454980122327,-24.69559885325966,23.954228506434127,0.0
19.1,4775.977320237001,-24.85759885325966,23.954228506434127,0.0
19.200000000000003,4773.483460351675,-25.01959885325966,23.954228506434127,0.0
19.3,4770.973400466349,-25.181598853259658,23.954228506434127,0.0
19.400000000000002,4768.447140581023,-25.343598853259657,23.954228506434127,0.0
19.5,4765.904680695697,-25.505598853259656,23.954228506434127,0.0
19.6,4763.346020810371,-25.667598853259655,23.954228506434127,0.0
19.700000000000003,4760.771160925045,-25.829598853259654,23.954228506434127,0.0
19.8,4758.1801010397185,-25.991598853259653,23.954228506434127,0.0
19.900000000000002,4755.572841154392,-26.153598853259652,23.954228506434127,0.0
20.0,4752.949381269066,-26.31559885325965,23.954228506434127,0.0
20.1,4750.30972138374,-26.47759885325965,23.954228506434127,0.0
20.200000000000003,4747.653861498414,-26.63959885325965,23.954228506434127,0.0
20.3,4744.981801613088,-26.801598853259648,23.954228506434127,0.0
20.400000000000002,4742.293541727761,-26.963598853259647,23.954228506434127,0.0
20.5,4739.589081842435,-27.125598853259646,23.954228506434127,0.0
20.6,4736.868421957109,-27.287598853259645,23.954228506434127,0.0
20.700000000000003,4734.131562071782,-27.449598853259644,23.954228506434127,0.0
20.8,4731.378502186456,-27.611598853259643,23.954228506434127,0.0
20.900000000000002,4728.60924230113,-27.773598853259642,23.954228506434127,0.0
21.0,4725.823782415803,-27.93559885325964,23.954228506434127,0.0
21.1,4723.022122530478,-28.09759885325964,23.954228506434127,0.0
21.200000000000003,4720.204262645152,-28.25959885325964,23.954228506434127,0.0
21.3,4717.3702027598265,-28.42159885325964,23.954228506434127,0.0
21.400000000000002,4714.519942874501,-28.583598853259637,23.954228506434127,0.0
21.5,4711.653482989175,-28.745598853259636,23.954228506434127,0.0
21.6,4708.77082310385,-28.907598853259636,23.954228506434127,0.0
21.700000000000003,4705.871963218524,-29.069598853259635,23.954228506434127,0.0
21.8,4702.956903333198,-29.231598853259634,23.954228506434127,0.0
21.900000000000002,4700.025643447872,-29.393598853259633,23.954228506434127,0.0
22.0,4697.078183562547,-29.55559885325963,23.954228506434127,0.0
22.1,4694.114523677221,-29.71759885325963,23.954228506434127,0.0
22.200000000000003,4691.134663791895,-29.87959885325963,23.954228506434127,0.0
22.3,4688.138603906569,-30.04159885325963,23.954228506434127,0.0
22.400000000000002,4685.126344021243,-30.203598853259628,23.954228506434127,0.0
22.5,4682.097884135917,-30.365598853259627,23.954228506434127,0.0
22.6,4679.0532242505915,-30.527598853259626,23.954228506434127,0.0
22.700000000000003,4675.9923643652655,-30.689598853259625,23.954228506434127,0.0
22.8,4672.91530447994,-30.851598853259624,23.954228506434127,0.0
22.900000000000002,4669.8220445946135,-31.013598853259623,23.954228506434127,0.0
23.0,4666.7125847092875,-31.175598853259622,23.954228506434127,0.0
23.1,4663.586924823961,-31.33759885325962,23.954228506434127,0.0
23.200000000000003,4660.445064938635,-31.49959885325962,23.954228506434127,0.0
23.3,4657.287005053309,-31.66159885325962,23.954228506434127,0.0
23.400000000000002,4654.112745167983,-31.823598853259618,23.954228506434127,0.0
23.5,4650.922285282657,-31.985598853259617,23.954228506434127,0.0
23.6,4647.715625397331,-32.147598853259616,23.954228506434127,0.0
23.700000000000003,4644.492765512005,-32.309598853259615,23.954228506434127,0.0
23.8,4641.253705626678,-32.471598853259614,23.954228506434127,0.0
23.900000000000002,4637.998445741352,-32.63359885325961,23.954228506434127,0.0
24.0,4634.726985856026,-32.79559885325961,23.954228506434127,0.0
24.1,4631.439325970699,-32.95759885325961,23.954228506434127,0.0
24.200000000000003,4628.135466085373,-33.11959885325961,23.954228506434127,0.0
24.3,4624.815406200047,-33.28159885325961,23.954228506434127,0.0
24.400000000000002,4621.47914631472,-33.44359885325961,23.954228506434127,0.0
24.5,4618.126686429395,-33.60559885325961,23.954228506434127,0.0
24.6,4614.758026544069,-33.76759885325961,23.954228506434127,0.0
24.700000000000003,4611.373166658744,-33.929598853259606,23.954228506434127,0.0
24.8,4607.972106773418,-34.091598853259605,23.954228506434127,0.0
24.900000000000002,4604.5548468880925,-34.253598853259604,23.954228506434127,0.0
25.0,4601.121387002767,-34.4155988532596,23.954228506434127,0.0
25.1,4597.671727117441,-34.5775988532596,23.954228506434127,0.0
25.200000000000003,4594.205867232115,-34.7395988532596,23.954228506434127,0.0
25.3,4590.72380734679,-34.9015988532596,23.954228506434127,0.0
25.400000000000002,4587.225547461464,-35.0635988532596,23.954228506434127,0.0
25.5,4583.711087576138,-35.2255988532596,23.954228506434127,0.0
