Time[s],Pos[m],V[m/s],mass[kg],T[N]
0.0,5000.0,0.0,24.0,9.885928415931856
0.1,4999.993959577292,-0.12080836542565994,23.999689831331906,9.860149495378584
0.2,4999.975832973936,-0.2417236134364563,23.999380471471355,9.96811096152049
0.30000000000000004,4999.9456373650055,-0.36218847496283235,23.999067724345313,9.919942235207165
0.4,4999.9033852613575,-0.48285350864704235,23.998756488501677,9.87524117807112
0.5,4999.849057367862,-0.6037042727273829,23.998446655143148,9.854687224092329
0.6000000000000001,4999.7826401421335,-0.7246401536674935,23.99813746666007,10.01301730333836
0.7000000000000001,4999.704162343043,-0.8449157371069078,23.997823310608165,9.854772063902972
0.8,4999.6136240418855,-0.9658501978619861,23.997514119463258,10.00058566677528
0.9,4999.5110227023515,-1.086176502011325,23.997200353451014,9.926935914545604
1.0,4999.396373414025,-1.2068091750363803,23.99688889818234,10.003196097206365
1.1,4999.269676774978,-1.327123515055291,23.996575050268458,9.840827201898904
1.2000000000000002,4999.130914897214,-1.4481139522711175,23.9962662966403,10.09992577693363
1.3,4998.98010798985,-1.568024102375433,23.995949413855573,9.98990956218502
1.4000000000000001,4998.817287171152,-1.68839218094688,23.995635982803588,9.880065975095215
1.5,4998.642406683346,-1.8092174865151636,23.995325998068193,9.959652863337991
1.6,4998.455460275554,-1.929710579232317,23.995013516312984,9.908675571699785
1.7000000000000002,4998.256453962949,-2.0504155836928097,23.994702633958255,9.945499014090771
1.8,4998.045384849961,-2.1709665862445107,23.994390596276723,9.94129493472068
1.9000000000000001,4997.8222597876065,-2.2915345710849833,23.994078690497187,10.018145238170128
2.0,4997.587093968267,-2.411781724536156,23.99376437355754,9.920869547154487
2.1,4997.339883189719,-2.532433757023856,23.99345310861971,9.770655895117391
2.2,4997.080575931424,-2.6537113221632254,23.993146556599722,9.9144678213522
2.3000000000000003,4996.809170912264,-2.774388971767881,23.99283549251453,9.821973307092167
2.4000000000000004,4996.525678879319,-2.8954515994968006,23.992527330422867,9.91541715795778
2.5,4996.2301000835905,-3.016124225748279,23.992216236552462,9.81225462849898
2.6,4995.92243255268,-3.1372263049998192,23.991908379382043,9.912522393270455
2.7,4995.602675736426,-3.2579099308112642,23.991597376334195,10.067445920033425
2.8000000000000003,4995.27088287169,-3.37794727182416,23.991281512597304,9.982452807042803
2.9000000000000004,4994.927068586989,-3.498338331672549,23.99096831549925,9.948064326450309
3.0,4994.571208056436,-3.61887218946667,23.990656197331646,10.022743081663712
3.1,4994.203309731347,-3.739094221047984,23.990341736135743,10.041106576483523
3.2,4993.823393057783,-3.859239158637422,23.99002669878953,9.943018314374083
3.3000000000000003,4993.431441474213,-3.9797924229253554,23.989714738939366,9.889225951297554
3.4000000000000004,4993.027423379519,-4.1005693820895,23.98940446681188,9.945204595260495
3.5,4992.611339283037,-4.2211124576883226,23.989092438367667,9.906903947100211
3.6,4992.1831929229575,-4.341814654718055,23.98878161159724,9.870754757020222
3.7,4991.742968835262,-4.462667010654343,23.98847191899911,9.940879995886908
3.8000000000000003,4991.290674155106,-4.583226502669648,23.98816002623818,10.019182271907903
3.9000000000000004,4990.826339873856,-4.703459031096145,23.987845676761843,9.937592440692947
4.0,4990.3499653604895,-4.82403114649715,23.987533887147183,9.931328501443103
4.1000000000000005,4989.861532356829,-4.944628837065622,23.987222294062136,9.902768239545162
4.2,4989.361033657728,-5.0653450558423465,23.986911597048557,9.842412921075235
4.3,4988.848450782491,-5.186312360838807,23.986602793668833,9.866543169019367
4.4,4988.323776233155,-5.3071785374247336,23.986293233208283,9.852092618574522
4.5,4987.787012080425,-5.428104428956156,23.985984126130337,9.913838889747254
4.6000000000000005,4987.238168236442,-5.548772361369165,23.985673081777723,9.922306105493503
4.7,4986.67725939109,-5.669404456190862,23.985361771768215,9.970158548216803
4.800000000000001,4986.104297338531,-5.789836504629954,23.985048960399624,9.874000658271774
4.9,4985.51927206268,-5.91066892376677,23.98473916596211,9.926177530505418
5.0,4984.922174448694,-6.031283266387126,23.98442773448756,9.873914988037283
5.1000000000000005,4984.313004532122,-6.152114976422219,23.98411794273793,9.860702546659674
5.2,4983.691748716697,-6.273001243707099,23.98380856552553,10.036628317273092
5.300000000000001,4983.058440977323,-6.393153452191071,23.98349366868364,10.001889359272308
5.4,4982.413110802247,-6.513449958397342,23.98317986176835,9.990872537889365
5.5,4981.755748707032,-6.633791855149045,23.982866400503227,9.918840640481513
5.6000000000000005,4981.08633743187,-6.754433558652064,23.982555199221867,10.003662281246566
5.7,4980.404879697374,-6.874721040289138,23.98224133668157,10.02123036748795
5.800000000000001,4979.71139690477,-6.994934720495634,23.98192692294672,10.048236253088147
5.9,4979.005898402052,-7.115035242059713,23.981611661908588,10.030627183175113
6.0,4978.288386203317,-7.235208641159501,23.981296953350864,10.00997228297742
6.1000000000000005,4977.558852385619,-7.355467621694946,23.980982892835755,9.977593024312128
6.2,4976.817285946112,-7.475861077907457,23.980669848212234,9.93361272199039
6.300000000000001,4976.063671018113,-7.596437392345211,23.980358183460307,9.996519955034186
6.4,4975.298011602112,-7.716750836826599,23.98004454500881,9.931849572602488
6.5,4974.520307384598,-7.8373334237588965,23.979732935575278,9.829111685602472
6.6000000000000005,4973.7305235133,-7.9583439143464645,23.979424549518676,9.934535593212212
6.7,4972.928660601649,-8.078914228910529,23.97911285581188,9.95843827679915
6.800000000000001,4972.114745669575,-8.19938432238063,23.978800412164038,9.980989942523804
6.9,4971.288788457669,-8.319759825137604,23.97848726096301,9.853350237100468
7.0,4970.450767106975,-8.440667100444976,23.978178114427582,9.934059102932936
7.1000000000000005,4969.600671885035,-8.561237248603485,23.977866435670556,9.855616047052573
7.2,4968.738503317676,-8.682134010236304,23.977557218045874,9.943488066755243
7.300000000000001,4967.864263424621,-8.802663760932795,23.97724524345734,9.926801180739012
7.4,4966.977967103711,-8.923262567625105,23.97693379241591,10.025442447033969
7.5,4966.079631499235,-9.04344943048786,23.976619246528056,9.972530131641609
7.6000000000000005,4965.169266201654,-9.163856430663593,23.976306360751597,9.989021360800388
7.7,4964.246863670292,-9.284194105799322,23.97599295756672,10.013196970179042
7.800000000000001,4963.31243244032,-9.404430402453139,23.975678795877812,9.892352042416514
7.9,4962.36595240626,-9.525170189733075,23.975368425669956,9.866458602666274
8.0,4961.407393020122,-9.64601744445135,23.975058867862653,9.972727521876969
8.1,4960.436771097662,-9.76642091426936,23.97474597589312,9.922987320125811
8.200000000000001,4959.454098481817,-9.887031313062941,23.974434644510666,9.89683187885723
8.3,4958.459359398058,-10.007750273001804,23.974124133749,10.133358719768156
8.4,4957.45259777508,-10.127482093128528,23.97380620201359,10.08403638158851
8.5,4956.433852711312,-10.24741908971087,23.97348981775489,9.827366554782069
8.6,4955.4030604431655,-10.36842618535442,23.973181486451352,10.052907950671699
8.700000000000001,4954.360214532579,-10.488491934414853,23.972866078839814,9.962171895220658
8.8,4953.305343149767,-10.608935631522437,23.972553518050574,9.858667659885842
8.9,4952.2384058360785,-10.729810553815213,23.972244204682262,9.894446326441095
9.0,4951.159388519276,-10.85053569315514,23.97193376876674,9.92643219613452
9.1,4950.068305386847,-10.971126865758317,23.971622329302114,9.936942828396829
9.200000000000001,4948.965165356383,-11.091673653659397,23.971310560068886,9.984350523261465
9.3,4947.849980562596,-11.212022131367934,23.970997303430433,10.071714076056578
9.4,4946.722779171174,-11.332005604753169,23.970681305781156,9.888875716384039
9.5,4945.583541321861,-11.4527512925022,23.97037104464221,9.863593448611969
9.600000000000001,4944.432223656778,-11.573601920627937,23.97006157672844,9.845049057922848
9.700000000000001,4943.268817087172,-11.694529383287048,23.969752690640547,9.841179743282426
9.8,4942.093316990632,-11.815472459358487,23.969443925951484,10.060509037867536
9.9,4940.90576836518,-11.935499957570903,23.96912827985763,9.816199061266422
10.0,4939.706166053634,-12.056546185653575,23.968820298931565,9.96538868978227
10.100000000000001,4938.494490267463,-12.176969447362291,23.968507637216156,9.948561515181929
10.200000000000001,4937.270768671942,-12.297462372976598,23.968195503449376,9.870231518949417
10.3,4936.034981470342,-12.418281570353244,23.967885827267718,9.889514606718588
10.4,4934.7871163983355,-12.539019780757307,23.967575546083737,9.965277058494237
10.5,4933.527193337331,-12.659441348935259,23.967262887870735,9.84656419551737
10.600000000000001,4932.255203380786,-12.780357693691299,23.966953954245756,9.883010302678596
10.700000000000001,4930.971129419719,-12.901121438747186,23.96664387713278,9.892667660045692
10.8,4929.674981125588,-13.021844354776524,23.966333497022493,9.928101638335079
10.9,4928.366767959095,-13.1424188853438,23.966022005179514,9.971918330464309
11.0,4927.046506507965,-13.262810046719991,23.96570913859817,9.971176748048943
11.100000000000001,4925.7142058131385,-13.383203759287522,23.965396295283803,9.971625316050543
11.200000000000001,4924.3698658677995,-13.503595056968235,23.965083437895718,9.927824103842767
11.3,4923.013477681225,-13.6241685847928,23.964771954760316,10.007771357708936
11.4,4921.645048849096,-13.744407966585657,23.964457963298717,9.905943919574655
11.5,4920.26457486045,-13.865071717000024,23.964147166648928,10.06373854547527
11.600000000000001,4918.872067446917,-13.98507646144136,23.963831419230036,9.906139498537474
11.700000000000001,4917.46752670363,-14.105738314942872,23.963520616444004,9.908626277318499
11.8,4916.050920320672,-14.226389254806007,23.963209735635875,9.961198004505158
11.9,4914.622259839903,-14.346820270215202,23.96289720540223,10.039975382874688
12.0,4913.181572722209,-14.466921991859557,23.962582203546948,9.953915183499978
12.100000000000001,4911.728857502529,-14.58738231152102,23.96226990181009,9.956495278823914
12.200000000000001,4910.264096816322,-14.707831322325038,23.96195751912335,9.838090466116935
12.3,4908.787266549074,-14.828773934489083,23.961648851359627,9.911932081255848
12.4,4907.298357455478,-14.949407847939923,23.96133786683268,9.901315340380325
12.5,4905.797382781972,-15.07008553288503,23.96102721540347,9.835279151438364
12.600000000000001,4904.284326586724,-15.191038283971753,23.96071863584408,9.829437287226625
12.700000000000001,4902.759173923738,-15.312014887745356,23.960410239571804,9.938443524094529
12.8,4901.221946374128,-15.432536014496481,23.960098423254603,10.064438311006558
12.9,4899.672693031689,-15.552530742008631,23.959782653880733,9.973891726750374
13.0,4898.111421348478,-15.672902831589862,23.959469725384547,9.96193207261332
13.100000000000001,4896.538109987662,-15.793324294316403,23.959157172119685,9.975881068658877
13.200000000000001,4894.952759418715,-15.913686993982264,23.95884418120837,9.942754056570884
13.3,4893.355365693621,-16.03418741783077,23.95853222964923,10.028791695335267
13.4,4891.745939908848,-16.154328185993904,23.958217578679502,9.94373198731477
13.5,4890.124482322915,-16.27482344258587,23.957905596438017,9.816457128122094
13.600000000000001,4888.490948675934,-16.395849409248502,23.957597607415163,9.94867756377802
13.700000000000001,4886.84534005354,-16.51632294847078,23.957285470007385,10.003894790947744
13.8,4885.187695628475,-16.636565461648274,23.95697160017215,9.913626705798283
13.9,4883.518008139655,-16.757184225208988,23.956660562476756,9.93035192166262
14.0,4881.836262292096,-16.877732636120864,23.95634900003167,9.95954352083059
14.100000000000001,4880.142467723118,-16.998158653057747,23.956036521707055,9.934073855684865
14.200000000000001,4878.436625263596,-17.118690447452394,23.955724842487168,9.950856596823641
14.3,4876.718733154508,-17.239151644073807,23.955412636712744,9.937610850456728
14.4,4874.988792188136,-17.359667593379694,23.95510084652048,9.840701022292267
14.5,4873.2467794262675,-17.480587555759655,23.954792096851175,9.979055563825389
14.600000000000001,4871.492703573143,-17.600929415970914,23.954479006340822,9.911297000712185
14.700000000000001,4869.726579417907,-17.72155359923827,23.954168041739376,0.0
14.8,4867.946324057983,-17.88355359923827,23.954168041739376,0.0
14.9,4866.1498686980585,-18.045553599238268,23.954168041739376,0.0
15.0,4864.3372133381345,-18.207553599238267,23.954168041739376,0.0
15.100000000000001,4862.50835797821,-18.369553599238266,23.954168041739376,0.0
15.200000000000001,4860.663302618286,-18.531553599238265,23.954168041739376,0.0
15.3,4858.802047258362,-18.693553599238264,23.954168041739376,0.0
15.4,4856.924591898438,-18.855553599238263,23.954168041739376,0.0
15.5,4855.030936538514,-19.017553599238262,23.954168041739376,0.0
15.600000000000001,4853.1210811785895,-19.17955359923826,23.954168041739376,0.0
15.700000000000001,4851.195025818665,-19.34155359923826,23.954168041739376,0.0
15.8,4849.252770458741,-19.50355359923826,23.954168041739376,0.0
15.9,4847.294315098818,-19.665553599238258,23.954168041739376,0.0
16.0,4845.319659738894,-19.827553599238257,23.954168041739376,0.0
16.1,4843.328804378971,-19.989553599238256,23.954168041739376,0.0
16.2,4841.321749019047,-20.151553599238255,23.954168041739376,0.0
16.3,4839.298493659124,-20.313553599238254,23.954168041739376,0.0
16.400000000000002,4837.2590382992,-20.475553599238253,23.954168041739376,0.0
16.5,4835.203382939277,-20.637553599238252,23.954168041739376,0.0
16.6,4833.131527579353,-20.79955359923825,23.954168041739376,0.0
16.7,4831.0434722194295,-20.96155359923825,23.954168041739376,0.0
16.8,4828.939216859506,-21.12355359923825,23.954168041739376,0.0
16.900000000000002,4826.818761499582,-21.28555359923825,23.954168041739376,0.0
17.0,4824.682106139659,-21.447553599238248,23.954168041739376,0.0
17.1,4822.529250779735,-21.609553599238247,23.954168041739376,0.0
17.2,4820.360195419811,-21.771553599238246,23.954168041739376,0.0
17.3,4818.174940059887,-21.933553599238245,23.954168041739376,0.0
17.400000000000002,4815.973484699964,-22.095553599238244,23.954168041739376,0.0
17.5,4813.75582934004,-22.257553599238243,23.954168041739376,0.0
17.6,4811.521973980116,-22.41955359923824,23.954168041739376,0.0
17.7,4809.271918620192,-22.58155359923824,23.954168041739376,0.0
17.8,4807.005663260268,-22.74355359923824,23.954168041739376,0.0
17.900000000000002,4804.723207900344,-22.90555359923824,23.954168041739376,0.0
18.0,4802.42455254042,-23.067553599238238,23.954168041739376,0.0
18.1,4800.109697180496,-23.229553599238237,23.954168041739376,0.0
18.2,4797.778641820572,-23.391553599238236,23.954168041739376,0.0
18.3,4795.431386460648,-23.553553599238235,23.954168041739376,0.0
18.400000000000002,4793.067931100724,-23.715553599238234,23.954168041739376,0.0
18.5,4790.6882757408,-23.877553599238233,23.954168041739376,0.0
18.6,4788.292420380876,-24.039553599238232,23.954168041739376,0.0
18.7,4785.880365020952,-24.20155359923823,23.954168041739376,0.0
18.8,4783.452109661028,-24.36355359923823,23.954168041739376,0.0
18.900000000000002,4781.007654301104,-24.52555359923823,23.954168041739376,0.0
19.0,4778.5469989411795,-24.68755359923823,23.954168041739376,0.0
19.1,4776.070143581255,-24.849553599238227,23.954168041739376,0.0
19.200000000000003,4773.577088221331,-25.011553599238226,23.954168041739376,0.0
19.3,4771.067832861408,-25.173553599238225,23.954168041739376,0.0
19.400000000000002,4768.542377501484,-25.335553599238224,23.954168041739376,0.0
19.5,4766.000722141561,-25.497553599238223,23.954168041739376,0.0
19.6,4763.442866781637,-25.659553599238222,23.954168041739376,0.0
19.700000000000003,4760.868811421714,-25.82155359923822,23.954168041739376,0.0
19.8,4758.27855606179,-25.98355359923822,23.954168041739376,0.0
19.900000000000002,4755.672100701867,-26.14555359923822,23.954168041739376,0.0
20.0,4753.049445341943,-26.30755359923822,23.954168041739376,0.0
20.1,4750.41058998202,-26.469553599238218,23.954168041739376,0.0
20.200000000000003,4747.755534622096,-26.631553599238217,23.954168041739376,0.0
20.3,4745.0842792621725,-26.793553599238216,23.954168041739376,0.0
20.400000000000002,4742.396823902249,-26.955553599238215,23.954168041739376,0.0
20.5,4739.693168542325,-27.117553599238214,23.954168041739376,0.0
20.6,4736.973313182401,-27.279553599238213,23.954168041739376,0.0
20.700000000000003,4734.237257822478,-27.441553599238212,23.954168041739376,0.0
20.8,4731.485002462554,-27.60355359923821,23.954168041739376,0.0
20.900000000000002,4728.71654710263,-27.76555359923821,23.954168041739376,0.0
21.0,4725.931891742706,-27.92755359923821,23.954168041739376,0.0
21.1,4723.131036382782,-28.089553599238208,23.954168041739376,0.0
21.200000000000003,4720.313981022859,-28.251553599238207,23.954168041739376,0.0
21.3,4717.480725662935,-28.413553599238206,23.954168041739376,0.0
21.400000000000002,4714.631270303011,-28.575553599238205,23.954168041739376,0.0
21.5,4711.765614943087,-28.737553599238204,23.954168041739376,0.0
21.6,4708.883759583163,-28.899553599238203,23.954168041739376,0.0
21.700000000000003,4705.985704223239,-29.061553599238202,23.954168041739376,0.0
21.8,4703.071448863315,-29.2235535992382,23.954168041739376,0.0
21.900000000000002,4700.140993503391,-29.3855535992382,23.954168041739376,0.0
22.0,4697.194338143467,-29.5475535992382,23.954168041739376,0.0
22.1,4694.231482783543,-29.7095535992382,23.954168041739376,0.0
22.200000000000003,4691.252427423618,-29.871553599238197,23.954168041739376,0.0
22.3,4688.257172063694,-30.033553599238196,23.954168041739376,0.0
22.400000000000002,4685.24571670377,-30.195553599238195,23.954168041739376,0.0
22.5,4682.218061343846,-30.357553599238194,23.954168041739376,0.0
22.6,4679.174205983922,-30.519553599238193,23.954168041739376,0.0
22.700000000000003,4676.114150623997,-30.681553599238192,23.954168041739376,0.0
22.8,4673.037895264074,-30.84355359923819,23.954168041739376,0.0
22.900000000000002,4669.945439904151,-31.00555359923819,23.954168041739376,0.0
23.0,4666.836784544227,-31.16755359923819,23.954168041739376,0.0
23.1,4663.711929184304,-31.32955359923819,23.954168041739376,0.0
23.200000000000003,4660.57087382438,-31.491553599238188,23.954168041739376,0.0
23.3,4657.413618464457,-31.653553599238187,23.954168041739376,0.0
23.400000000000002,4654.240163104533,-31.815553599238186,23.954168041739376,0.0
23.5,4651.05050774461,-31.977553599238185,23.954168041739376,0.0
23.6,4647.844652384686,-32.139553599238184,23.954168041739376,0.0
23.700000000000003,4644.622597024762,-32.30155359923818,23.954168041739376,0.0
23.8,4641.384341664839,-32.46355359923818,23.954168041739376,0.0
23.900000000000002,4638.129886304915,-32.62555359923818,23.954168041739376,0.0
24.0,4634.859230944991,-32.78755359923818,23.954168041739376,0.0
24.1,4631.572375585068,-32.94955359923818,23.954168041739376,0.0
24.200000000000003,4628.269320225144,-33.11155359923818,23.954168041739376,0.0
24.3,4624.95006486522,-33.27355359923818,23.954168041739376,0.0
24.400000000000002,4621.614609505296,-33.435553599238176,23.954168041739376,0.0
24.5,4618.2629541453725,-33.597553599238175,23.954168041739376,0.0
24.6,4614.895098785449,-33.759553599238174,23.954168041739376,0.0
24.700000000000003,4611.511043425525,-33.92155359923817,23.954168041739376,0.0
24.8,4608.110788065601,-34.08355359923817,23.954168041739376,0.0
24.900000000000002,4604.694332705677,-34.24555359923817,23.954168041739376,0.0
25.0,4601.261677345753,-34.40755359923817,23.954168041739376,0.0
25.1,4597.812821985829,-34.56955359923817,23.954168041739376,0.0
25.200000000000003,4594.347766625905,-34.73155359923817,23.954168041739376,0.0
25.3,4590.866511265981,-34.89355359923817,23.954168041739376,0.0
25.400000000000002,4587.369055906057,-35.055553599238166,23.954168041739376,0.0
25.5,4583.855400546133,-35.217553599238165,23.954168041739376,0.0
