Time[s],Pos[m],V[m/s],mass[kg],T[N]
0.0,5000.0,0.0,24.0,9.974163826521714
0.1,4999.993977959829,-0.12044071310890522,23.99968706296675,10.036038419573316
0.2,4999.975924766262,-0.24062306677568385,23.99937218463276,9.949917326684607
0.30000000000000004,4999.945835422242,-0.3611637237420413,23.999060008327714,9.893091540268806
0.4,4999.903680200219,-0.4819406278630354,23.99874961491829,9.926108504895597
0.5,4999.849454193394,-0.6025794191760308,23.9984381856094,9.880198246477939
0.6000000000000001,4999.783154768933,-0.723408981407999,23.998128196724018,9.937303983486274
0.7000000000000001,4999.7047843128985,-0.8440000496168804,23.997816416159633,9.939201052636784
0.8,4999.614355172204,-0.9645826745590712,23.99750457607515,9.950605577779832
0.9,4999.511870172137,-1.085117236877883,23.99719237817639,9.967677460296178
1.0,4999.397335299899,-1.2055801176449232,23.996879644651347,9.788613615763703
1.1,4999.270716856512,-1.3267886630921788,23.996572529212116,9.885044648610661
1.2000000000000002,4999.131997677523,-1.4475948279468118,23.996262388272015,9.954811811344301
1.3,4998.981212445885,-1.5681097148254042,23.99595005840367,9.88473919231563
1.4000000000000001,4998.818361151505,-1.6889160840436364,23.995639927047186,9.884247532349493
1.5,4998.643429144375,-1.8097239698337546,23.99532981111642,9.994060889900341
1.6,4998.456439257718,-1.9300736725954184,23.995016249817507,9.988790178052504
1.7000000000000002,4998.257413329696,-2.050444797224803,23.994702853885933,9.98044039743239
1.8,4998.04634857646,-2.170850177021377,23.994389719926755,9.852413328843584
1.9000000000000001,4997.823216633613,-2.291788591758399,23.9940806027866,9.921343747480188
2.0,4997.5880052399125,-2.4124391928460964,23.99376932297085,9.91437526209399
2.1,4997.340727360768,-2.5331183007619646,23.99345826178968,9.79028336705629
2.2,4997.081355737868,-2.6543140701708468,23.993151093962396,9.922323725515401
2.3000000000000003,4996.809892080643,-2.774958984887673,23.992839783400065,9.964702103868651
2.4000000000000004,4996.526372790317,-2.8954267314436324,23.992527143226127,9.926039409843835
2.5,4996.230798695088,-3.0160550836301354,23.992215716085077,9.92729918504955
2.6,4995.923162054032,-3.1366776479604774,23.99190424941888,10.00292630052441
2.7,4995.603478944504,-3.256984451699251,23.991590409969806,9.870896604110506
2.8000000000000003,4995.271737665806,-3.3778410337534313,23.99128071292126,9.935346326512262
2.9000000000000004,4994.927924187478,-3.4984284431084167,23.9909689937779,10.021248710101082
3.0,4994.572069898342,-3.6186572483719703,23.990654579467556,9.88233649283956
3.1,4994.204163804482,-3.7394645401010544,23.990344523495203,9.924152419441219
3.2,4993.824185723301,-3.860096994034767,23.990033155558034,9.952332416778626
3.3000000000000003,4993.432150296894,-3.9806114440893756,23.989720903480105,9.919041848819594
3.4000000000000004,4993.028056513915,-4.101264126099042,23.98940969588588,10.000962653483011
3.5,4992.6119145640705,-4.221574779898473,23.989095918045766,9.84487381618139
3.6,4992.1837090425415,-4.342535562618093,23.988787037456042,9.97239226426101
3.7,4991.743434048152,-4.4629642348001495,23.98847415600514,9.884413204174109
3.8000000000000003,4991.291097875719,-4.583759125075765,23.98816403487646,9.915253833782938
3.9000000000000004,4990.826688669251,-4.704424914952206,23.98785294613031,9.938725190548281
4.0,4990.350217802982,-4.824992320665284,23.98754112097589,9.933633769913557
4.1000000000000005,4989.861689161799,-4.9455804133203385,23.98722945556359,9.952696890995227
4.2,4989.361105711886,-5.066088494915863,23.98691719205037,9.951595523041526
4.3,4988.848471251242,-5.1866006279587555,23.986604963092308,9.869057151601165
4.4,4988.32376839905,-5.307456327352675,23.98629532375615,9.967015190713242
4.5,4987.787000423237,-5.427903098613327,23.985982611009657,10.028889021190576
4.6000000000000005,4987.238200695412,-5.548091366464902,23.985667956986354,9.88063596446763
4.7,4986.677351263451,-5.668897184031265,23.985357954367675,9.947248027889366
4.800000000000001,4986.104435162459,-5.789424745874825,23.985045861811248,9.864041071230144
4.9,4985.5194489865235,-5.910298684381891,23.984736379853423,9.91599310414411
5.0,4984.922386273593,-6.030955484860934,23.984425267912844,9.938877026805525
5.1000000000000005,4984.313262678049,-6.151516336222781,23.984113437994598,9.835435304831393
5.2,4983.692061459488,-6.2725079470523735,23.983804853535936,9.920298401545763
5.300000000000001,4983.0587787981285,-6.393145190673894,23.983493606517666,9.954249797842879
5.4,4982.413439517383,-6.513640334151861,23.98318129428236,9.948574781154282
5.5,4981.75604956618,-6.63415859993755,23.982869160099362,10.015273445917654
5.6000000000000005,4981.086621720994,-6.754398212594505,23.982554933261518,10.029993483947973
5.7,4980.405173010832,-6.874575899179418,23.98224024458596,9.987762147404212
5.800000000000001,4979.711697754664,-6.994929133495302,23.981926880908606,9.843439234814495
5.9,4979.0061571120805,-7.115883630081871,23.98161804532853,9.98316412294605
6.0,4978.288550178183,-7.236254957242695,23.981304825913107,9.940455892913118
6.1000000000000005,4977.558897234194,-7.356803832693864,23.980992946458308,9.880582115965964
6.2,4976.817176945916,-7.477601844096322,23.980682945529114,9.89215121994915
6.300000000000001,4976.063379295321,-7.598351078818701,23.980372581622017,9.922503710190554
6.4,4975.297513076614,-7.71897320579121,23.98006126541271,9.92285709858313
6.5,4974.5195847457535,-7.8395933218854434,23.979749938115926,9.93165501888737
6.6000000000000005,4973.7295962646085,-7.960176211310039,23.979438334786472,9.837490278558287
6.7,4972.927529886786,-8.081151257126836,23.979129685853493,9.883931360851124
6.800000000000001,4972.113375714514,-8.20193209945923,23.978819579842533,9.997489276846474
6.9,4971.287167163665,-8.322238826639408,23.97850591097879,9.972455050451511
7.0,4970.448922747182,-8.442649412558284,23.978193027557985,9.88996582230983
7.1000000000000005,4969.598620098209,-8.563403477957674,23.97788273221722,9.859612237330634
7.2,4968.736235739832,-8.684283601159917,23.977573389213013,10.062953191726645
7.300000000000001,4967.86180579835,-8.804315136376067,23.97725766643441,9.998900075662558
7.4,4966.975359373805,-8.924613263597148,23.976943953307188,10.03989882100479
7.5,4966.076891713512,-9.044739850574988,23.976628953854018,9.945534413611917
7.6000000000000005,4965.166391743442,-9.16525946085737,23.976316915061833,9.85158987067442
7.7,4964.243820248054,-9.286170358610631,23.976007823757485,9.83232756870816
7.800000000000001,4963.309153672347,-9.407161067592392,23.97569933680331,9.964531874165106
7.9,4962.362415622842,-9.527599832185757,23.97538670197029,9.888270759058585
8.0,4961.403617819794,-9.648356139811675,23.975076459811735,9.87085137077376
8.1,4960.4327407798255,-9.769184570908727,23.974766764182373,9.830462374747027
8.200000000000001,4959.449772500037,-9.890180936942192,23.974458335748217,9.988525470314725
8.3,4958.4547375752,-10.010517469035435,23.974144948121786,9.99453186143073
8.4,4957.447670277076,-10.130828402557068,23.973831372046252,9.91993756291038
8.5,4956.428556355288,-10.251449943680928,23.973520136349208,9.812465250107866
8.6,4955.397357891257,-10.37251924931554,23.973212272570585,9.90412959306846
8.700000000000001,4954.354071641187,-10.493205662844685,23.972901532844862,9.962948058891152
8.8,4953.298729044344,-10.613646183697949,23.97258894770367,9.829179583723018
8.9,4952.231314521972,-10.734644175829814,23.97228055951678,9.842708691779999
9.0,4951.151803048608,-10.855585203300556,23.97197174685732,9.990159428906379
9.1,4950.060228254029,-10.9759105974452,23.971658307965825,9.93641427375942
9.200000000000001,4948.95660973704,-11.09645965250658,23.971346555315872,9.942833470895621
9.3,4947.84093768044,-11.21698138951183,23.971034601265128,10.026841935401045
9.4,4946.713231000194,-11.3371521239101,23.97072001146866,9.943568543121343
9.5,4945.573489903991,-11.457669710172329,23.9704080343552,9.850111167457683
9.600000000000001,4944.421677581665,-11.578576648045539,23.970098989444814,9.917339380008686
9.700000000000001,4943.257788615512,-11.69920258549754,23.969787835265148,10.026144061077748
9.8,4942.081859778878,-11.819374055684545,23.96947326736432,9.945259895929395
9.9,4940.893896950198,-11.93988242790309,23.969161237185062,9.958258438077772
10.0,4939.69388602284,-12.060336028998902,23.968848799179618,9.904766726338462
10.100000000000001,4938.481818603764,-12.181012263229956,23.96853803946399,9.873554150409337
10.200000000000001,4937.257677076842,-12.301818186478659,23.968228259035556,9.8640524613801
10.3,4936.021453002056,-12.422663220668998,23.967918776720367,9.883309304412613
10.4,4934.773148467668,-12.543427378166314,23.96760869022628,9.90389977999736
10.5,4933.5127718397225,-12.664105091454143,23.967297957710887,10.0397023372859
10.600000000000001,4932.240355798284,-12.784215645553246,23.966982964422346,9.895916824309339
10.700000000000001,4930.955898732121,-12.90492558856841,23.966672482370303,9.959181610601965
10.8,4929.659383897007,-13.025371023410422,23.966360015400536,10.016440592783423
10.9,4928.3508364913005,-13.145576999377724,23.966045751943735,9.948813362361886
11.0,4927.03025440631,-13.266064610332787,23.965733610275308,9.902410654127308
11.100000000000001,4925.69761390612,-13.3867453041855,23.965422924480887,9.912733225973632
11.200000000000001,4924.352907516985,-13.50738238904446,23.965111914818213,9.8539304360955
11.3,4922.996125177683,-13.62826430859251,23.964802750079176,9.822750833381907
11.4,4921.627248167602,-13.749275805175769,23.964494563592808,9.937043064533805
11.5,4920.246293880584,-13.86980984528244,23.964182791214693,9.950472867773128
11.600000000000001,4918.85328901861,-13.990287304038313,23.963870597479676,9.931815338945087
11.700000000000001,4917.448232544928,-14.110842079770071,23.963558989120216,9.97700197372739
11.8,4916.031130048899,-14.231207750155034,23.96324596304077,9.908710756911939
11.9,4914.601976763744,-14.351857863552391,23.962935079582113,9.844626534448437
12.0,4913.160745122425,-14.472774874557155,23.962626206750794,10.02854025487188
12.100000000000001,4911.707460181935,-14.592923843667739,23.962311563669953,9.946071726648388
12.200000000000001,4910.242143163894,-14.713416427058617,23.961999508019698,9.997456810228678
12.3,4908.764787636837,-14.833694023041755,23.96168584017459,10.12383519808046
12.4,4907.275430748652,-14.953443647311474,23.96136820723742,10.0555949790093
12.5,4905.774084686285,-15.073477507932147,23.961052715321003,9.99223234659363
12.600000000000001,4904.260722043364,-15.193775259560395,23.960739211392205,9.9388352930037
12.700000000000001,4902.73531850985,-15.314295320737903,23.960427382783347,9.988382600839671
12.8,4901.197873336704,-15.434608051300478,23.960113999639415,10.00684148645133
12.9,4899.648400769801,-15.554843195550237,23.959800037352306,9.866124569864708
13.0,4898.086875350371,-15.67566510438311,23.959490490025203,9.884504199804939
13.100000000000001,4896.5132716022545,-15.796409768943473,23.959180366041554,9.905053290171146
13.200000000000001,4894.927597702774,-15.917068131302207,23.958869597335053,9.920683884555933
13.3,4893.329861255861,-16.03766071728976,23.958558338222346,10.010718517296283
13.4,4891.720084367071,-16.157876967223753,23.95824425429431,9.967476775685697
13.5,4890.0982768562,-16.27827315968574,23.9579315270657,9.909990184065476
13.600000000000001,4888.464417755728,-16.39890876026399,23.95762060346532,9.833494536825265
13.700000000000001,4886.818479157119,-16.519863123815142,23.957312079897793,10.034552088294024
13.8,4885.160487110575,-16.63997771534676,23.956997248197098,9.920602630594681
13.9,4883.490459850109,-16.760567404304393,23.956685991633712,9.910089335003004
14.0,4881.8083714534,-16.881200440405156,23.956375064922494,9.950509686933312
14.100000000000001,4880.114228216239,-17.001664212586473,23.956062870032284,10.04977345091298
14.200000000000001,4878.408059346986,-17.12171308045143,23.955747560764934,9.995833685659514
14.3,4876.689874360247,-17.24198656329242,23.955433943844973,9.82461420955891
14.4,4874.9596263151425,-17.362974250837905,23.955125698895618,9.979345910785815
14.5,4873.217311824107,-17.483315479128283,23.954812599275698,9.92930833508358
14.600000000000001,4871.4629527932175,-17.603865048826336,23.954501069572892,9.865689370285056
14.700000000000001,4869.696525553071,-17.724679665406814,23.954191535900076,0.0
14.8,4867.915957586531,-17.886679665406813,23.954191535900076,0.0
14.9,4866.11918961999,-18.048679665406812,23.954191535900076,0.0
15.0,4864.306221653449,-18.21067966540681,23.954191535900076,0.0
15.100000000000001,4862.477053686908,-18.37267966540681,23.954191535900076,0.0
15.200000000000001,4860.631685720367,-18.53467966540681,23.954191535900076,0.0
15.3,4858.7701177538265,-18.69667966540681,23.954191535900076,0.0
15.4,4856.892349787286,-18.858679665406807,23.954191535900076,0.0
15.5,4854.998381820745,-19.020679665406806,23.954191535900076,0.0
15.600000000000001,4853.088213854204,-19.182679665406805,23.954191535900076,0.0
15.700000000000001,4851.161845887663,-19.344679665406805,23.954191535900076,0.0
15.8,4849.219277921122,-19.506679665406804,23.954191535900076,0.0
15.9,4847.260509954581,-19.668679665406803,23.954191535900076,0.0
16.0,4845.28554198804,-19.8306796654068,23.954191535900076,0.0
16.1,4843.294374021499,-19.9926796654068,23.954191535900076,0.0
16.2,4841.287006054958,-20.1546796654068,23.954191535900076,0.0
16.3,4839.2634380884165,-20.3166796654068,23.954191535900076,0.0
16.400000000000002,4837.223670121876,-20.478679665406798,23.954191535900076,0.0
16.5,4835.167702155336,-20.640679665406797,23.954191535900076,0.0
16.6,4833.095534188796,-20.802679665406796,23.954191535900076,0.0
16.7,4831.007166222255,-20.964679665406795,23.954191535900076,0.0
16.8,4828.902598255715,-21.126679665406794,23.954191535900076,0.0
16.900000000000002,4826.781830289175,-21.288679665406793,23.954191535900076,0.0
17.0,4824.644862322634,-21.450679665406792,23.954191535900076,0.0
17.1,4822.491694356094,-21.61267966540679,23.954191535900076,0.0
17.2,4820.322326389553,-21.77467966540679,23.954191535900076,0.0
17.3,4818.136758423013,-21.93667966540679,23.954191535900076,0.0
17.400000000000002,4815.934990456472,-22.098679665406788,23.954191535900076,0.0
17.5,4813.717022489932,-22.260679665406787,23.954191535900076,0.0
17.6,4811.482854523391,-22.422679665406786,23.954191535900076,0.0
17.7,4809.232486556851,-22.584679665406785,23.954191535900076,0.0
17.8,4806.96591859031,-22.746679665406784,23.954191535900076,0.0
17.900000000000002,4804.6831506237695,-22.908679665406783,23.954191535900076,0.0
18.0,4802.384182657229,-23.070679665406782,23.954191535900076,0.0
18.1,4800.069014690688,-23.23267966540678,23.954191535900076,0.0
18.2,4797.737646724147,-23.39467966540678,23.954191535900076,0.0
18.3,4795.390078757607,-23.55667966540678,23.954191535900076,0.0
18.400000000000002,4793.026310791066,-23.71867966540678,23.954191535900076,0.0
18.5,4790.646342824525,-23.880679665406777,23.954191535900076,0.0
18.6,4788.250174857984,-24.042679665406776,23.954191535900076,0.0
18.7,4785.8378068914435,-24.204679665406776,23.954191535900076,0.0
18.8,4783.409238924903,-24.366679665406775,23.954191535900076,0.0
18.900000000000002,4780.964470958362,-24.528679665406774,23.954191535900076,0.0
19.0,4778.503502991821,-24.690679665406773,23.954191535900076,0.0
19.1,4776.02633502528,-24.85267966540677,23.954191535900076,0.0
19.200000000000003,4773.532967058739,-25.01467966540677,23.954191535900076,0.0
19.3,4771.023399092198,-25.17667966540677,23.954191535900076,0.0
19.400000000000002,4768.497631125657,-25.33867966540677,23.954191535900076,0.0
19.5,4765.955663159116,-25.500679665406768,23.954191535900076,0.0
19.6,4763.397495192575,-25.662679665406767,23.954191535900076,0.0
19.700000000000003,4760.823127226034,-25.824679665406766,23.954191535900076,0.0
19.8,4758.2325592594925,-25.986679665406765,23.954191535900076,0.0
19.900000000000002,4755.625791292952,-26.148679665406764,23.954191535900076,0.0
20.0,4753.002823326412,-26.310679665406763,23.954191535900076,0.0
20.1,4750.363655359872,-26.472679665406762,23.954191535900076,0.0
20.200000000000003,4747.708287393331,-26.63467966540676,23.954191535900076,0.0
20.3,4745.036719426791,-26.79667966540676,23.954191535900076,0.0
20.400000000000002,4742.348951460251,-26.95867966540676,23.954191535900076,0.0
20.5,4739.64498349371,-27.120679665406758,23.954191535900076,0.0
20.6,4736.92481552717,-27.282679665406757,23.954191535900076,0.0
20.700000000000003,4734.188447560629,-27.444679665406756,23.954191535900076,0.0
20.8,4731.435879594089,-27.606679665406755,23.954191535900076,0.0
20.900000000000002,4728.667111627548,-27.768679665406754,23.954191535900076,0.0
21.0,4725.882143661008,-27.930679665406753,23.954191535900076,0.0
21.1,4723.080975694467,-28.092679665406752,23.954191535900076,0.0
21.200000000000003,4720.263607727927,-28.25467966540675,23.954191535900076,0.0
21.3,4717.430039761386,-28.41667966540675,23.954191535900076,0.0
21.400000000000002,4714.580271794845,-28.57867966540675,23.954191535900076,0.0
21.5,4711.714303828305,-28.74067966540675,23.954191535900076,0.0
21.6,4708.832135861764,-28.902679665406747,23.954191535900076,0.0
21.700000000000003,4705.933767895223,-29.064679665406747,23.954191535900076,0.0
21.8,4703.019199928683,-29.226679665406746,23.954191535900076,0.0
21.900000000000002,4700.088431962142,-29.388679665406745,23.954191535900076,0.0
22.0,4697.141463995601,-29.550679665406744,23.954191535900076,0.0
22.1,4694.17829602906,-29.712679665406743,23.954191535900076,0.0
22.200000000000003,4691.198928062519,-29.87467966540674,23.954191535900076,0.0
22.3,4688.2033600959785,-30.03667966540674,23.954191535900076,0.0
22.400000000000002,4685.191592129438,-30.19867966540674,23.954191535900076,0.0
22.5,4682.163624162897,-30.36067966540674,23.954191535900076,0.0
22.6,4679.119456196356,-30.522679665406738,23.954191535900076,0.0
22.700000000000003,4676.059088229815,-30.684679665406737,23.954191535900076,0.0
22.8,4672.982520263274,-30.846679665406736,23.954191535900076,0.0
22.900000000000002,4669.889752296733,-31.008679665406735,23.954191535900076,0.0
23.0,4666.780784330192,-31.170679665406734,23.954191535900076,0.0
23.1,4663.655616363651,-31.332679665406733,23.954191535900076,0.0
23.200000000000003,4660.514248397109,-31.494679665406732,23.954191535900076,0.0
23.3,4657.356680430569,-31.65667966540673,23.954191535900076,0.0
23.400000000000002,4654.182912464029,-31.81867966540673,23.954191535900076,0.0
23.5,4650.992944497489,-31.98067966540673,23.954191535900076,0.0
23.6,4647.786776530948,-32.14267966540673,23.954191535900076,0.0
23.700000000000003,4644.564408564408,-32.30467966540673,23.954191535900076,0.0
23.8,4641.325840597868,-32.46667966540673,23.954191535900076,0.0
23.900000000000002,4638.071072631327,-32.62867966540673,23.954191535900076,0.0
24.0,4634.800104664787,-32.79067966540673,23.954191535900076,0.0
24.1,4631.512936698246,-32.95267966540673,23.954191535900076,0.0
24.200000000000003,4628.209568731706,-33.114679665406726,23.954191535900076,0.0
24.3,4624.8900007651655,-33.276679665406725,23.954191535900076,0.0
24.400000000000002,4621.554232798625,-33.438679665406724,23.954191535900076,0.0
24.5,4618.202264832084,-33.60067966540672,23.954191535900076,0.0
24.6,4614.834096865544,-33.76267966540672,23.954191535900076,0.0
24.700000000000003,4611.449728899003,-33.92467966540672,23.954191535900076,0.0
24.8,4608.049160932463,-34.08667966540672,23.954191535900076,0.0
24.900000000000002,4604.632392965922,-34.24867966540672,23.954191535900076,0.0
25.0,4601.199424999381,-34.41067966540672,23.954191535900076,0.0
25.1,4597.750257032841,-34.57267966540672,23.954191535900076,0.0
25.200000000000003,4594.2848890663,-34.734679665406716,23.954191535900076,0.0
25.3,4590.803321099759,-34.896679665406715,23.954191535900076,0.0
25.400000000000002,4587.305553133218,-35.058679665406714,23.954191535900076,0.0
25.5,4583.791585166678,-35.22067966540671,23.954191535900076,0.0
