Time[s],Pos[m],V[m/s],mass[kg],T[N]
0.0,5000.0,0.0,24.0,10.010091174979184
0.1,4999.993985444758,-0.12029101386821545,23.99968593575468,9.956839814997096
0.2,4999.975930721145,-0.24080336838758412,23.999373542258198,9.894619643276407
0.30000000000000004,4999.945811826095,-0.3615744437166646,23.999063100904902,9.92978926241199
0.4,4999.903623177533,-0.48219843802345724,23.998751556113117,9.833197931614665
0.5,4999.849352031982,-0.6032243852100994,23.99844304185151,9.912563141462652
0.6000000000000001,4999.782994853683,-0.723919091550258,23.998132037525195,10.060831833621403
0.7000000000000001,4999.704599123499,-0.8439954202187855,23.9978163813037,9.86190968052528
0.8,4999.614154341774,-0.9649001259574909,23.997506966217756,9.998922682665674
0.9,4999.511647663558,-1.0852333475954363,23.997193252381244,9.868141731160778
1.0,4999.397080440958,-1.2061110159666306,23.996883641766185,9.970914799229597
1.1,4999.270446892072,-1.326559871486779,23.996570806670398,9.919622520225612
1.2000000000000002,4999.131757797207,-1.4472219364649577,23.996259580857746,9.830987814935714
1.3,4998.98098405405,-1.5682528389041714,23.99595113593803,10.035820889680664
1.4000000000000001,4998.818149928107,-1.688429588482795,23.995636264428992,9.911868096981708
1.5,4998.643272326228,-1.8091223598808013,23.995325281909537,9.846348878072064
1.6,4998.456311821362,-1.9300876493855252,23.995016355040093,9.895754106649754
1.7000000000000002,4998.257265108943,-2.050846510048588,23.994705878093278,9.982700193930532
1.8,4998.046160655062,-2.1712424770684926,23.994392673233516,9.873044565683932
1.9000000000000001,4997.822993781173,-2.2920949121747296,23.99408290879318,9.999395549738564
2.0,4997.587768020176,-2.4124202169566407,23.993769180120577,9.861901726347238
2.1,4997.340481103713,-2.533318023963985,23.993459765284193,9.982716415463823
2.2,4997.081129609856,-2.6537117626336717,23.993146559915484,10.019521595429756
2.3000000000000003,4996.809746439293,-2.77395155744646,23.992832199792954,9.929258750512341
2.4000000000000004,4996.5263205060655,-2.8945670175546554,23.992520671645853,9.896105931048021
2.5,4996.230826144644,-3.015320121907676,23.992210183660628,9.889324795372575
2.6,4995.92325508627,-3.136100956744331,23.991899908431932,9.789519680656815
2.7,4995.603585171134,-3.2572972589080558,23.99159276456513,9.959787081365159
2.8000000000000003,4995.271831137012,-3.37778333341824,23.99128027859886,9.891145930891316
2.9000000000000004,4994.928014216914,-3.498554979663749,23.99096994623247,9.989190731030215
3.0,4994.572140592722,-3.6189174135236755,23.990656537733642,9.793976064482893
3.1,4994.204190066428,-3.740093025193349,23.990349254048848,9.925517375528402
3.2,4993.824149420812,-3.86071979760545,23.990037843286505,9.94922896546176
3.3000000000000003,4993.432051066818,-3.981247192351802,23.989725688578627,10.0081482518364
3.4000000000000004,4993.027912280546,-4.10152844207919,23.989411685292062,9.991486697675779
3.5,4992.611741923885,-4.221878600428355,23.989098204757823,10.033368097446738
3.6,4992.183545307936,-4.342053627087049,23.98878341020456,9.974901325065199
3.7,4991.743319030384,-4.462471833538529,23.98847045003247,9.943345300291682
3.8000000000000003,4991.291044381922,-4.583021045843759,23.988158479923197,9.959448105083602
3.9000000000000004,4990.82671819562,-4.703502590056392,23.987846004592228,9.766886903778518
4.0,4990.350303744351,-4.824786348647312,23.98753957082345,9.89717469890113
4.1000000000000005,4989.861788100852,-4.94552643230501,23.98722904930589,9.936497961584724
4.2,4989.361206672473,-5.066102045550477,23.98691729403025,9.9126380374187
4.3,4988.848562736117,-5.186776592268975,23.986606287354093,9.888295358860944
4.4,4988.323846297613,-5.30755208894161,23.986296044423725,9.925719148999418
4.5,4987.787060137247,-5.428171028837111,23.985984627330783,9.840694322533567
4.6000000000000005,4987.238194385746,-5.549143913164923,23.98567587787168,9.95957059211507
4.7,4986.677256153112,-5.669620649368883,23.985363398697714,9.913241540244973
4.800000000000001,4986.104260616045,-5.790290002632172,23.985052373086802,10.009850020055463
4.9,4985.519218309935,-5.910556028494192,23.98473831640766,9.958420288690284
5.0,4984.922138707124,-6.031035937589782,23.98442587332419,9.91298214394266
5.1000000000000005,4984.313001667938,-6.151704756805906,23.984114855851775,9.979785814447212
5.2,4983.691811700399,-6.272094503443572,23.983801742429982,9.855875095399021
5.300000000000001,4983.058556952966,-6.393000356909909,23.98349251667772,9.979384430510134
5.4,4982.413237395723,-6.513390697416795,23.983179415849254,9.850378131599479
5.5,4981.7558519361955,-6.63431840492141,23.98287036256293,9.88452407736521
5.6000000000000005,4981.086380851262,-6.755103204916946,23.982560237955628,9.904152662058085
5.7,4980.404835405275,-6.875805625642387,23.98224949750612,9.988158210739465
5.800000000000001,4979.711237258231,-6.996157224519763,23.981936121402374,9.82949026440572
5.9,4979.005570897505,-7.117169902158427,23.98162772346795,9.965175237987488
6.0,4978.287831584972,-7.237616258207256,23.98131506844954,9.940705309762988
6.1000000000000005,4977.558042562004,-7.358164111302401,23.981003181169346,9.89488599877716
6.2,4976.816189227347,-7.478902492793577,23.980692731459207,10.021792826622322
6.300000000000001,4976.06228854169,-7.599111129042854,23.980378300077334,9.991181885398232
6.4,4975.296360637251,-7.71944686894155,23.980064829106507,9.910751097354318
6.5,4974.518382415566,-7.840117475445432,23.97975388163265,9.99501485773937
6.6000000000000005,4973.72835472995,-7.960436146013463,23.979440290403222,9.793143097536843
6.7,4972.926253111494,-8.08159613590031,23.97913303285257,9.790100286473617
6.800000000000001,4972.112034885738,-8.202768292053653,23.978825870769395,9.977865044197253
6.9,4971.2857386230535,-8.32315687108147,23.978512817611314,9.945092776857864
7.0,4970.447396695897,-8.443681582103931,23.978200792675377,9.957335220142456
7.1000000000000005,4969.597004877473,-8.564154696190966,23.977888383635676,9.930686951943333
7.2,4968.734560217804,-8.68473840750794,23.977576810679093,9.943072797976813
7.300000000000001,4967.860059796732,-8.80526992401818,23.977264849119518,9.92518456078706
7.4,4966.973502520703,-8.925875506954531,23.976953448799158,10.0515422434496
7.5,4966.0749110633105,-9.045953548985182,23.97663808403636,9.982657400144516
7.6000000000000005,4965.164297464168,-9.16631834322046,23.976324880519243,9.914665046252123
7.7,4964.241633233612,-9.286966178479013,23.976013810246165,9.994054425835282
7.800000000000001,4963.306920802501,-9.40728235289731,23.975700249150062,9.937593849352359
7.9,4962.360165006561,-9.52783347606419,23.975388459491203,9.869948207103937
8.0,4961.401340017825,-9.648666210037629,23.97507879219839,9.897340192944153
8.1,4960.430437494922,-9.769384158892917,23.97476826548849,9.856682077790333
8.200000000000001,4959.447454724441,-9.890271162346014,23.974459014417345,9.945828604630163
8.3,4958.45240187227,-10.010785791076824,23.974146966394986,9.930150419691888
8.4,4957.445294314385,-10.131365276896172,23.973835410271974,10.093900813685504
8.5,4956.426162987029,-10.251261177524432,23.973518716519045,9.941643133012786
8.6,4955.395010341754,-10.371791638046638,23.97320679981487,9.90089722338093
8.700000000000001,4954.351796179113,-10.492491525578655,23.972896161503982,9.940337563991573
8.8,4953.296520280576,-10.613026355258524,23.972584285761727,9.853935723141833
8.9,4952.229172904918,-10.733921069539747,23.97227512085681,10.025738268055909
9.0,4951.149771918242,-10.8540985725299,23.971960565687645,9.955869721365257
9.1,4950.058338635606,-10.974566990000861,23.971648202627623,10.035089074999748
9.200000000000001,4948.954875061977,-11.094704390932947,23.9713333540791,9.960726422060645
9.3,4947.839382264866,-11.215151461003135,23.97102083864124,9.984820479971459
9.4,4946.711849813541,-11.335497474748918,23.970707567258007,9.927904450884158
9.5,4945.572270915963,-11.456080387133497,23.970396081601738,9.949106945011598
9.600000000000001,4944.420638176735,-11.576574307333734,23.970083930722225,9.974778323460445
9.700000000000001,4943.256961427439,-11.696960588045926,23.96977097440928,9.985128062394654
9.8,4942.081248236171,-11.817303146572543,23.96945769337572,9.900262355256476
9.9,4940.893483113236,-11.937999222925898,23.969147074983667,9.932162798940038
10.0,4939.693655063966,-12.058561672679732,23.968835455722733,9.995893596327628
10.100000000000001,4938.481784091286,-12.178857689978107,23.968521836923088,10.038312627400362
10.200000000000001,4937.257892393141,-12.298976181186351,23.968206887236366,9.915761666414026
10.3,4936.021963307854,-12.419605435071016,23.96789578255709,10.105378173023455
10.4,4934.774010880726,-12.539443014541325,23.967578728704723,9.950690503506708
10.5,4933.514042453064,-12.659925448560546,23.967266528141437,9.942666815359116
10.600000000000001,4932.242024135141,-12.780440819893233,23.96695457931947,9.931280358486939
10.700000000000001,4930.957951931613,-12.901003160870324,23.966642987744898,9.889661393445467
10.8,4929.661814838164,-13.021738619075109,23.96633270195552,9.967653818886818
10.9,4928.353620496995,-13.142148113858651,23.96601996917222,10.002410144193675
11.0,4927.033392484714,-13.262412040676894,23.965706145917427,9.980803407273275
11.100000000000001,4925.701133599193,-13.382765579046994,23.9653930005689,9.92160517263938
11.200000000000001,4924.356827036162,-13.503365591952507,23.965081712550994,9.940330389452717
11.3,4923.0004644055325,-13.6238869306664,23.96476983703384,9.990262202792039
11.4,4921.632060085866,-13.744199371787035,23.964456394917836,9.927353973576182
11.5,4920.251611423917,-13.864773777465455,23.96414492653266,9.99845675341213
11.600000000000001,4918.8591201836925,-13.985050936002422,23.96383122731457,9.841276297398418
11.700000000000001,4917.454568459287,-14.105983463920305,23.96352245959615,10.041124168255433
11.8,4916.037965207259,-14.22608148482317,23.963207421697998,9.872286763476492
11.9,4914.609316951913,-14.346883533341604,23.962897681033528,9.975142912032897
12.0,4913.168609980069,-14.467255812914702,23.9625847132817,9.971384423537126
12.100000000000001,4911.715865023205,-14.58764323382346,23.962271863451562,9.827958179891352
12.200000000000001,4910.251051423642,-14.708628669469093,23.96196351358593,9.974569501405602
12.3,4908.774169899679,-14.82900171919178,23.961650563824726,9.88363174288221
12.4,4907.285232122074,-14.949753743928222,23.961340467214207,9.872225937808711
12.5,4905.784216788623,-15.070552836328567,23.961030728458127,9.984632968686983
12.600000000000001,4904.271145028983,-15.190882265676816,23.960717462958016,9.98008345539205
12.700000000000001,4902.74603940427,-15.311230137846715,23.960404340197808,9.870179171145377
12.8,4901.208876084795,-15.43203616292556,23.96009466565855,9.85200702645416
12.9,4899.65962839723,-15.552917499940857,23.959785561266035,9.84275413567392
13.0,4898.098290671551,-15.673836925400897,23.959476747180783,9.961172788035446
13.100000000000001,4896.524885742292,-15.794261569390825,23.959164217738298,10.000864029725086
13.200000000000001,4894.939446658925,-15.914520006846232,23.958850442992482,9.92304295823545
13.3,4893.341965518435,-16.03510271324584,23.958539109864393,9.865302802030529
13.4,4891.732414084096,-16.15592588488203,23.958229588320062,9.913537531520447
13.5,4890.1107904257,-16.27654719349668,23.95791855342249,9.865479959360144
13.600000000000001,4888.477094633636,-16.397368559104816,23.957609026319894,9.884550511691266
13.700000000000001,4886.831320711708,-16.51810979042745,23.95729890088322,9.853510825584438
13.8,4885.17346621517,-16.638980051874263,23.956989749309365,9.983856098780489
13.9,4883.503551923279,-16.759305695145773,23.956676508183364,9.82171101152252
14.0,4881.821571252697,-16.880307628586475,23.95636835432116,9.928136049867316
14.100000000000001,4880.127512627596,-17.000864783623786,23.956056861398526,10.002035124623305
14.200000000000001,4878.42141373795,-17.12111291814062,23.955743049909884,9.892107410621565
14.3,4876.703267118083,-17.241819390029345,23.955432687377293,9.96693903720748
14.4,4874.973065496839,-17.36221294433808,23.9551199770201,9.952867900636516
14.5,4873.230821610316,-17.48266469585738,23.95480770814149,9.875200144524682
14.600000000000001,4871.476516364272,-17.603440136142964,23.95449787607038,9.909262444592292
14.700000000000001,4869.710140710715,-17.72407284553387,23.954186975302655,0.0
14.8,4867.929633426162,-17.886072845533867,23.954186975302655,0.0
14.9,4866.132926141609,-18.048072845533866,23.954186975302655,0.0
15.0,4864.320018857055,-18.210072845533865,23.954186975302655,0.0
15.100000000000001,4862.490911572502,-18.372072845533864,23.954186975302655,0.0
15.200000000000001,4860.645604287949,-18.534072845533863,23.954186975302655,0.0
15.3,4858.784097003396,-18.696072845533863,23.954186975302655,0.0
15.4,4856.906389718843,-18.85807284553386,23.954186975302655,0.0
15.5,4855.012482434289,-19.02007284553386,23.954186975302655,0.0
15.600000000000001,4853.102375149736,-19.18207284553386,23.954186975302655,0.0
15.700000000000001,4851.176067865183,-19.34407284553386,23.954186975302655,0.0
15.8,4849.233560580629,-19.506072845533858,23.954186975302655,0.0
15.9,4847.274853296076,-19.668072845533857,23.954186975302655,0.0
16.0,4845.2999460115225,-19.830072845533856,23.954186975302655,0.0
16.1,4843.308838726969,-19.992072845533855,23.954186975302655,0.0
16.2,4841.301531442416,-20.154072845533854,23.954186975302655,0.0
16.3,4839.278024157862,-20.316072845533853,23.954186975302655,0.0
16.400000000000002,4837.238316873309,-20.478072845533852,23.954186975302655,0.0
16.5,4835.182409588755,-20.64007284553385,23.954186975302655,0.0
16.6,4833.1103023042015,-20.80207284553385,23.954186975302655,0.0
16.7,4831.021995019648,-20.96407284553385,23.954186975302655,0.0
16.8,4828.917487735094,-21.126072845533848,23.954186975302655,0.0
16.900000000000002,4826.796780450541,-21.288072845533847,23.954186975302655,0.0
17.0,4824.659873165987,-21.450072845533846,23.954186975302655,0.0
17.1,4822.506765881433,-21.612072845533845,23.954186975302655,0.0
17.2,4820.3374585968795,-21.774072845533844,23.954186975302655,0.0
17.3,4818.151951312326,-21.936072845533843,23.954186975302655,0.0
17.400000000000002,4815.950244027772,-22.098072845533842,23.954186975302655,0.0
17.5,4813.732336743218,-22.26007284553384,23.954186975302655,0.0
17.6,4811.498229458664,-22.42207284553384,23.954186975302655,0.0
17.7,4809.247922174111,-22.58407284553384,23.954186975302655,0.0
17.8,4806.981414889558,-22.74607284553384,23.954186975302655,0.0
17.900000000000002,4804.698707605005,-22.908072845533837,23.954186975302655,0.0
18.0,4802.399800320452,-23.070072845533836,23.954186975302655,0.0
18.1,4800.084693035899,-23.232072845533835,23.954186975302655,0.0
18.2,4797.753385751346,-23.394072845533834,23.954186975302655,0.0
18.3,4795.405878466793,-23.556072845533834,23.954186975302655,0.0
18.400000000000002,4793.04217118224,-23.718072845533833,23.954186975302655,0.0
18.5,4790.662263897687,-23.88007284553383,23.954186975302655,0.0
18.6,4788.266156613134,-24.04207284553383,23.954186975302655,0.0
18.7,4785.8538493285805,-24.20407284553383,23.954186975302655,0.0
18.8,4783.425342044027,-24.36607284553383,23.954186975302655,0.0
18.900000000000002,4780.980634759474,-24.528072845533828,23.954186975302655,0.0
19.0,4778.519727474921,-24.690072845533827,23.954186975302655,0.0
19.1,4776.042620190367,-24.852072845533826,23.954186975302655,0.0
19.200000000000003,4773.549312905814,-25.014072845533825,23.954186975302655,0.0
19.3,4771.039805621261,-25.176072845533824,23.954186975302655,0.0
19.400000000000002,4768.514098336707,-25.338072845533823,23.954186975302655,0.0
19.5,4765.972191052154,-25.500072845533822,23.954186975302655,0.0
19.6,4763.4140837676005,-25.66207284553382,23.954186975302655,0.0
19.700000000000003,4760.839776483047,-25.82407284553382,23.954186975302655,0.0
19.8,4758.2492691984935,-25.98607284553382,23.954186975302655,0.0
19.900000000000002,4755.64256191394,-26.148072845533818,23.954186975302655,0.0
20.0,4753.019654629386,-26.310072845533817,23.954186975302655,0.0
20.1,4750.380547344833,-26.472072845533816,23.954186975302655,0.0
20.200000000000003,4747.725240060279,-26.634072845533815,23.954186975302655,0.0
20.3,4745.053732775726,-26.796072845533814,23.954186975302655,0.0
20.400000000000002,4742.366025491172,-26.958072845533813,23.954186975302655,0.0
20.5,4739.662118206618,-27.120072845533812,23.954186975302655,0.0
20.6,4736.942010922065,-27.28207284553381,23.954186975302655,0.0
20.700000000000003,4734.205703637511,-27.44407284553381,23.954186975302655,0.0
20.8,4731.453196352957,-27.60607284553381,23.954186975302655,0.0
20.900000000000002,4728.684489068403,-27.76807284553381,23.954186975302655,0.0
21.0,4725.8995817838495,-27.930072845533807,23.954186975302655,0.0
21.1,4723.098474499297,-28.092072845533806,23.954186975302655,0.0
21.200000000000003,4720.281167214744,-28.254072845533805,23.954186975302655,0.0
21.3,4717.447659930191,-28.416072845533805,23.954186975302655,0.0
21.400000000000002,4714.597952645638,-28.578072845533804,23.954186975302655,0.0
21.5,4711.732045361085,-28.740072845533803,23.954186975302655,0.0
21.6,4708.8499380765315,-28.9020728455338,23.954186975302655,0.0
21.700000000000003,4705.9516307919785,-29.0640728455338,23.954186975302655,0.0
21.8,4703.037123507425,-29.2260728455338,23.954186975302655,0.0
21.900000000000002,4700.106416222872,-29.3880728455338,23.954186975302655,0.0
22.0,4697.159508938319,-29.550072845533798,23.954186975302655,0.0
22.1,4694.196401653766,-29.712072845533797,23.954186975302655,0.0
22.200000000000003,4691.217094369213,-29.874072845533796,23.954186975302655,0.0
22.3,4688.221587084659,-30.036072845533795,23.954186975302655,0.0
22.400000000000002,4685.209879800106,-30.198072845533794,23.954186975302655,0.0
22.5,4682.181972515553,-30.360072845533793,23.954186975302655,0.0
22.6,4679.1378652309995,-30.522072845533792,23.954186975302655,0.0
22.700000000000003,4676.077557946446,-30.68407284553379,23.954186975302655,0.0
22.8,4673.001050661893,-30.84607284553379,23.954186975302655,0.0
22.900000000000002,4669.908343377339,-31.00807284553379,23.954186975302655,0.0
23.0,4666.799436092786,-31.170072845533788,23.954186975302655,0.0
23.1,4663.6743288082325,-31.332072845533787,23.954186975302655,0.0
23.200000000000003,4660.533021523679,-31.494072845533786,23.954186975302655,0.0
23.3,4657.375514239126,-31.656072845533785,23.954186975302655,0.0
23.400000000000002,4654.201806954572,-31.818072845533784,23.954186975302655,0.0
23.5,4651.0118996700185,-31.980072845533783,23.954186975302655,0.0
23.6,4647.805792385465,-32.14207284553378,23.954186975302655,0.0
23.700000000000003,4644.583485100911,-32.30407284553378,23.954186975302655,0.0
23.8,4641.344977816358,-32.46607284553378,23.954186975302655,0.0
23.900000000000002,4638.090270531804,-32.62807284553378,23.954186975302655,0.0
24.0,4634.81936324725,-32.79007284553378,23.954186975302655,0.0
24.1,4631.532255962697,-32.95207284553378,23.954186975302655,0.0
24.200000000000003,4628.228948678143,-33.11407284553378,23.954186975302655,0.0
24.3,4624.909441393589,-33.276072845533776,23.954186975302655,0.0
24.400000000000002,4621.573734109035,-33.438072845533775,23.954186975302655,0.0
24.5,4618.2218268244815,-33.600072845533774,23.954186975302655,0.0
24.6,4614.8537195399285,-33.76207284553377,23.954186975302655,0.0
24.700000000000003,4611.469412255376,-33.92407284553377,23.954186975302655,0.0
24.8,4608.068904970823,-34.08607284553377,23.954186975302655,0.0
24.900000000000002,4604.65219768627,-34.24807284553377,23.954186975302655,0.0
25.0,4601.2192904017165,-34.41007284553377,23.954186975302655,0.0
25.1,4597.7701831171635,-34.57207284553377,23.954186975302655,0.0
25.200000000000003,4594.30487583261,-34.73407284553377,23.954186975302655,0.0
25.3,4590.823368548057,-34.896072845533766,23.954186975302655,0.0
25.400000000000002,4587.325661263504,-35.058072845533765,23.954186975302655,0.0
25.5,4583.811753978951,-35.220072845533764,23.954186975302655,0.0
