Time[s],Pos[m],V[m/s],mass[kg],T[N]
0.0,5000.0,0.0,24.0,9.909262444592292
0.1,4999.99396443859,-0.12071113904823455,23.999689099232274,9.95806902202982
0.2,4999.9758679582765,-0.24121837720727046,23.999376667169713,10.064725819658962
0.30000000000000004,4999.945743002092,-0.3612806545133885,23.99906088877533,9.855695131361443
0.4,4999.9035682956255,-0.4822133866261184,23.998751668669396,9.909451426625502
0.5,4999.8493115423125,-0.6029215904816513,23.9984407619724,9.726982725389204
0.6000000000000001,4999.782945978253,-0.7243896047992637,23.998135580187792,9.984055390992296
0.7000000000000001,4999.704487199961,-0.8447858705463405,23.997822332809044,9.932075667542781
0.8,4999.61397799206,-0.9653981978844025,23.997510716281838,9.965091614997716
0.9,4999.511414457394,-1.08587240527763,23.99719806388708,9.950203186446519
1.0,4999.396800426894,-1.2064081148100476,23.99688587861325,10.012436291967733
1.1,4999.270145819438,-1.3266839432718724,23.99657174079044,10.027892130291974
1.2000000000000002,4999.131466876901,-1.4468948161506874,23.996257118044355,9.925985262893438
1.3,4998.980745640378,-1.5675298248324276,23.995945692602156,10.110584757350836
1.4000000000000001,4998.817999394891,-1.6873949920715536,23.995628475394437,9.93103263391622
1.5,4998.643229246696,-1.8080078822402585,23.995316891592164,9.830938494511917
1.6,4998.456376979161,-1.9290373806858891,23.995008448219863,9.93532498064159
1.7000000000000002,4998.25744354001,-2.0496313126805243,23.994696729746224,9.934584260825241
1.8,4998.046450580204,-2.1702277938144308,23.994385034512494,9.895460262551284
1.9000000000000001,4997.823389846365,-2.2909867940202977,23.994074566784967,10.028324236375642
2.0,4997.588280926258,-2.411191516773142,23.993759930481655,9.901708069878113
2.1,4997.3411251758225,-2.531923402891697,23.99344926673065,9.94479363787513
2.2,4997.081905242179,-2.652475180129265,23.99313725118013,9.889691522249631
2.3000000000000003,4996.810618674773,-2.7732560791523713,23.992826964445467,9.996372639557556
2.4000000000000004,4996.527276276188,-2.8935918017783555,23.992513330615957,9.974764180168116
2.5,4996.231895829366,-3.014017044277219,23.99220037474675,9.835683248737077
2.6,4995.924443900546,-3.135021444249449,23.991891782508908,9.785056394499582
2.7,4995.604881007177,-3.2562363361418454,23.991584778676653,9.9268897699562
2.8000000000000003,4995.273226209953,-3.3768595188264765,23.991273324855758,9.873929952531272
2.9000000000000004,4994.929498083913,-3.4977029133852,23.99096353263662,9.954427553511968
3.0,4994.573702421786,-3.6182102391346764,23.990651214824272,9.97702007205228
3.1,4994.205860762741,-3.7386228513115745,23.99033818817699,9.97110842710371
3.2,4993.825976637512,-3.8590595629470195,23.990025347006178,9.969847767265245
3.3000000000000003,4993.434048605471,-3.979500987576032,23.98971254538827,9.893970332009792
3.4000000000000004,4993.030060643346,-4.100258165984843,23.98940212440696,9.917680098796607
3.5,4992.614001931823,-4.220915975092839,23.98909095953732,9.976621866915476
3.6,4992.185889751428,-4.341327542364291,23.988777945383635,9.854773348998355
3.7,4991.745711044236,-4.462246513222114,23.988468754198408,9.838764664179566
3.8000000000000003,4991.293437129659,-4.583231690353524,23.988160065281882,10.008242813559551
3.9000000000000004,4990.829100049439,-4.703509823019382,23.987846059028467,9.977393198890326
4.0,4990.352728752945,-4.823916016402633,23.987533020674423,9.982861057929263
4.1000000000000005,4989.864318003992,-4.9442988720969785,23.98721981076759,9.966957322217302
4.2,4989.363865681567,-5.064747486113734,23.98690709983671,9.921973364500285
4.3,4988.851359147971,-5.185383096336734,23.986595800266873,9.935715354804604
4.4,4988.3267919447335,-5.305960878692483,23.986284069545338,9.844876977407031
4.5,4987.790148054531,-5.4269168372829935,23.98597518885643,9.92207381864695
4.6000000000000005,4987.241424687113,-5.547550421583602,23.98566388613487,9.923166756003985
4.7,4986.680638215943,-5.668178912311808,23.985352549122656,9.958494717534547
4.800000000000001,4986.107796287101,-5.788659574374562,23.985040103703998,9.963237250449527
4.9,4985.522907307749,-5.9091199224382445,23.984727509489492,9.912313102271794
5.0,4984.925961704615,-6.029792050930836,23.9844165130081,10.036023308130968
5.1000000000000005,4984.316974705354,-6.149947842705442,23.98410163514823,9.916095723677289
5.2,4983.6959471526925,-6.27060312114984,23.983790519987988,9.880063916330734
5.300000000000001,4983.062846587237,-6.391408099214668,23.983480535317184,9.782434049487673
5.4,4982.417645196858,-6.512619621372465,23.983173613760385,9.9015570046277
5.5,4981.760347515269,-6.633333921268293,23.982862954749017,9.944717462512436
5.6000000000000005,4981.090987428695,-6.753867720292127,23.982550941588478,9.981757822529346
5.7,4980.409581711617,-6.874246530700478,23.9822377662954,10.011368754616992
5.800000000000001,4979.7161443142395,-6.9945013257114,23.98192366196632,9.930616009649906
5.9,4979.010664628384,-7.11509230173582,23.981612091235533,9.96158566190208
6.0,4978.293132328839,-7.235553598928129,23.981299548839225,9.92950973544777
6.1000000000000005,4977.56354723889,-7.356148110406244,23.98098801281753,9.941437217337278
6.2,4976.821905211572,-7.476692346095985,23.98067610257391,10.1432655119654
6.300000000000001,4976.068250869457,-7.596394402644531,23.980357860015236,9.862100918358937
6.4,4975.302567725306,-7.717268391922171,23.98004843892925,9.912419045482887
6.5,4974.524807700516,-7.837932014521212,23.979737439123912,10.005515189953522
6.6000000000000005,4973.735000751859,-7.95820686758235,23.979423518449043,9.931513322061118
6.7,4972.933150914789,-8.078789784131011,23.97911191956529,9.974261304449191
6.800000000000001,4972.119251726638,-8.199193888406576,23.978798979473694,9.947105557185587
6.9,4971.293306492704,-8.319710700287418,23.978486891387252,9.824504173529895
7.0,4970.455284039486,-8.440738276275956,23.97817864989025,9.918978576087444
7.1000000000000005,4969.605178555254,-8.561371318888567,23.97786744428119,9.8941972142989
7.2,4968.7430046260115,-8.68210717692442,23.977557016181503,9.989600205974899
7.300000000000001,4967.868777032077,-8.802444611013044,23.977243594835496,9.945413142187002
7.4,4966.982506507507,-8.922965790408803,23.976931559848172,9.94581097438287
7.5,4966.084183974951,-9.043484770746492,23.976619512378957,9.94754267014381
7.6000000000000005,4965.173809932478,-9.163995988690429,23.976307410578197,9.810799274435798
7.7,4964.251356278611,-9.285077001111388,23.97599959906917,9.881808384016379
7.800000000000001,4963.316809358268,-9.405861316919566,23.975689559666105,9.947699346880672
7.9,4962.370197774315,-9.526370272124238,23.97537745294965,9.950120200890817
8.0,4961.4115358267145,-9.64686858982085,23.975065270279472,9.918738351853577
8.1,4960.440817529623,-9.76749726251241,23.974754072207393,9.853809065427054
8.200000000000001,4959.458022850817,-9.888396225271068,23.974444911276333,9.787368881548112
8.3,4958.463124445658,-10.00957179075756,23.974137834890342,9.96356630000524
8.4,4957.456145257806,-10.1300118759533,23.973825230351984,10.060217521173422
8.5,4956.437142246363,-10.250048260839769,23.973509593404398,9.846482898196378
8.6,4955.406091046419,-10.370975649827193,23.973200662330104,9.969273441952645
8.700000000000001,4954.362972744222,-10.491390303679273,23.972887878731513,9.903785484628793
8.8,4953.307799344896,-10.612077593587198,23.97257714980211,9.80647831778315
8.9,4952.240536947663,-10.733170263567386,23.972269473862074,9.859838247733189
9.0,4951.16117643929,-10.85403981541703,23.971960123766845,9.884442582881286
9.1,4950.069734134215,-10.974806197184492,23.971650001716412,9.910615564337865
9.200000000000001,4948.966220676835,-11.095462861031503,23.971339058494873,9.844573988253824
9.3,4947.850627804654,-11.216394494393569,23.971030187312177,9.890869995621268
9.4,4946.722951452337,-11.337132462927237,23.97071986360319,9.957905318100877
9.5,4945.583215312748,-11.457590238624206,23.9704074366768,9.917309111250466
9.600000000000001,4944.431424954603,-11.57821683475141,23.970096283446807,9.894906747466806
9.700000000000001,4943.267567290677,-11.698936354655308,23.969785833085684,9.952935275146183
9.8,4942.091649806114,-11.819413246451896,23.969473562093217,9.844835110286837
9.9,4940.903662109675,-11.940340594116018,23.969164682717878,9.972545917130827
10.0,4939.70360834581,-12.060734592659504,23.968851796446152,9.902159578108082
10.100000000000001,4938.491500526243,-12.181421709433627,23.96854111852918,10.020050880188007
10.200000000000001,4937.267348614911,-12.301616425816983,23.968226741800464,9.926271471226126
10.3,4936.03115769591,-12.422201864498376,23.967915307378544,9.957691941784438
10.4,4934.782914814699,-12.542655669455625,23.967602887146786,9.819063393749083
10.5,4933.522597659836,-12.663687340057615,23.967294816352965,9.873072672241571
10.600000000000001,4932.250188631626,-12.78449313541036,23.966985051030793,9.89425354577655
10.700000000000001,4930.9657034693,-12.905210021984098,23.96667462116372,9.914830315360868
10.8,4929.669150937878,-13.025840516963434,23.966363545705363,9.919815152082649
10.9,4928.36053642378,-13.14644967540315,23.96605231384893,9.931899453255848
11.0,4927.039863541865,-13.267007873090705,23.965740702850404,9.941144706276297
11.100000000000001,4925.707136795988,-13.38752695447696,23.96542880178425,9.833451301254032
11.200000000000001,4924.36233570028,-13.508494871641028,23.96512027957323,9.800336453815557
11.3,4923.00543093024,-13.629600441688751,23.964812796332726,9.86409699507045
11.4,4921.636428932496,-13.750439424607746,23.964503312620305,9.937159639131215
11.5,4920.255358307099,-13.870972993399736,23.96419153658469,10.03083886459757
11.600000000000001,4918.862253897636,-13.991115104240414,23.96387682138551,9.95454097613121
11.700000000000001,4917.457119385082,-14.111575056610844,23.963564500014556,9.903113215398712
11.8,4916.03992817386,-14.232249078511643,23.96325379217744,9.965676994203987
11.9,4914.610682641461,-14.352661479027425,23.96294112141655,9.859653039688395
12.0,4913.169373773467,-14.47351579231567,23.962631777132177,9.874424972637303
12.100000000000001,4911.715982583015,-14.594307927932523,23.9623219693819,10.013019170884007
12.200000000000001,4910.250541125083,-14.71452113939969,23.962007813271402,9.99434645648363
12.3,4908.773074477046,-14.83481173036911,23.961694243012907,9.982785642223785
12.4,4907.283576384829,-14.95515002320881,23.961381035472225,10.000629198763406
12.5,4905.782048213988,-15.07541330251559,23.961067268094176,9.912114345768536
12.600000000000001,4904.268475271826,-15.196045451242549,23.960756277848724,9.879376534036881
12.700000000000001,4902.74283231003,-15.316813695778626,23.960446314744377,9.91806053788088
12.8,4901.205120622992,-15.437419955396683,23.96013513793855,9.842287114755157
12.9,4899.655332524339,-15.558341929406494,23.95982633850597,9.88655747109385
13.0,4898.093461493292,-15.679078602500109,23.95951615010142,9.964276583561858
13.100000000000001,4896.519533040627,-15.799490360361666,23.959203523278084,9.898378223081307
13.200000000000001,4894.933549686987,-15.920176623177436,23.958892964000235,9.911026895836637
13.3,4893.335500373526,-16.040809556562206,23.958582007873265,9.951540198914234
13.4,4891.725396248507,-16.161272853596095,23.958269780650983,9.954829222415999
13.5,4890.103246507264,-16.28172188100141,23.957957450236368,9.965349593725879
13.600000000000001,4888.469054085973,-16.40212645434286,23.95764478974759,9.917372134140642
13.700000000000001,4886.822811221428,-16.522730746944386,23.95733363454027,9.934439377258723
13.8,4885.164511516545,-16.643263260812198,23.95702194385223,9.888106286813384
13.9,4883.494148917122,-16.76398863855447,23.95671170685395,9.809085535472184
14.0,4881.811697314106,-16.885043334116162,23.956403949113078,10.016538286044176
14.100000000000001,4880.117183566182,-17.00523153294721,23.956089682591173,9.90180239314802
14.200000000000001,4878.410627078467,-17.12589813200807,23.955779015880797,9.934286580101961
14.3,4876.692010737737,-17.246428592649703,23.955467329986732,9.921618895901286
14.4,4874.961338733892,-17.367011394551056,23.955156041538263,9.944643114243098
14.5,4873.218613282501,-17.487497543165595,23.954844030710387,10.05074502611191
14.600000000000001,4871.46386138971,-17.607540220598896,23.954528690960096,10.07705257595618
14.700000000000001,4869.697110747983,-17.727472521385067,23.954212525816644,0.0
14.8,4867.916263495845,-17.889472521385066,23.954212525816644,0.0
14.9,4866.119216243706,-18.051472521385065,23.954212525816644,0.0
15.0,4864.305968991568,-18.213472521385064,23.954212525816644,0.0
15.100000000000001,4862.47652173943,-18.375472521385063,23.954212525816644,0.0
15.200000000000001,4860.630874487291,-18.537472521385062,23.954212525816644,0.0
15.3,4858.769027235153,-18.69947252138506,23.954212525816644,0.0
15.4,4856.890979983014,-18.86147252138506,23.954212525816644,0.0
15.5,4854.996732730876,-19.02347252138506,23.954212525816644,0.0
15.600000000000001,4853.086285478737,-19.18547252138506,23.954212525816644,0.0
15.700000000000001,4851.159638226599,-19.347472521385058,23.954212525816644,0.0
15.8,4849.21679097446,-19.509472521385057,23.954212525816644,0.0
15.9,4847.257743722322,-19.671472521385056,23.954212525816644,0.0
16.0,4845.282496470183,-19.833472521385055,23.954212525816644,0.0
16.1,4843.2910492180445,-19.995472521385054,23.954212525816644,0.0
16.2,4841.283401965906,-20.157472521385053,23.954212525816644,0.0
16.3,4839.259554713767,-20.319472521385052,23.954212525816644,0.0
16.400000000000002,4837.219507461628,-20.48147252138505,23.954212525816644,0.0
16.5,4835.16326020949,-20.64347252138505,23.954212525816644,0.0
16.6,4833.090812957351,-20.80547252138505,23.954212525816644,0.0
16.7,4831.002165705212,-20.967472521385048,23.954212525816644,0.0
16.8,4828.897318453073,-21.129472521385047,23.954212525816644,0.0
16.900000000000002,4826.776271200934,-21.291472521385046,23.954212525816644,0.0
17.0,4824.6390239487955,-21.453472521385045,23.954212525816644,0.0
17.1,4822.485576696657,-21.615472521385044,23.954212525816644,0.0
17.2,4820.315929444518,-21.777472521385043,23.954212525816644,0.0
17.3,4818.130082192379,-21.939472521385042,23.954212525816644,0.0
17.400000000000002,4815.928034940241,-22.10147252138504,23.954212525816644,0.0
17.5,4813.709787688103,-22.26347252138504,23.954212525816644,0.0
17.6,4811.475340435964,-22.42547252138504,23.954212525816644,0.0
17.7,4809.224693183826,-22.58747252138504,23.954212525816644,0.0
17.8,4806.957845931688,-22.749472521385037,23.954212525816644,0.0
17.900000000000002,4804.67479867955,-22.911472521385036,23.954212525816644,0.0
18.0,4802.375551427412,-23.073472521385035,23.954212525816644,0.0
18.1,4800.060104175273,-23.235472521385034,23.954212525816644,0.0
18.2,4797.728456923135,-23.397472521385033,23.954212525816644,0.0
18.3,4795.380609670997,-23.559472521385032,23.954212525816644,0.0
18.400000000000002,4793.0165624188585,-23.72147252138503,23.954212525816644,0.0
18.5,4790.63631516672,-23.88347252138503,23.954212525816644,0.0
18.6,4788.239867914582,-24.04547252138503,23.954212525816644,0.0
18.7,4785.827220662443,-24.20747252138503,23.954212525816644,0.0
18.8,4783.398373410305,-24.369472521385028,23.954212525816644,0.0
18.900000000000002,4780.953326158166,-24.531472521385027,23.954212525816644,0.0
19.0,4778.492078906028,-24.693472521385026,23.954212525816644,0.0
19.1,4776.014631653889,-24.855472521385025,23.954212525816644,0.0
19.200000000000003,4773.520984401751,-25.017472521385024,23.954212525816644,0.0
19.3,4771.011137149612,-25.179472521385023,23.954212525816644,0.0
19.400000000000002,4768.485089897474,-25.341472521385022,23.954212525816644,0.0
19.5,4765.942842645335,-25.50347252138502,23.954212525816644,0.0
19.6,4763.384395393196,-25.66547252138502,23.954212525816644,0.0
19.700000000000003,4760.809748141058,-25.82747252138502,23.954212525816644,0.0
19.8,4758.218900888919,-25.989472521385018,23.954212525816644,0.0
19.900000000000002,4755.61185363678,-26.151472521385017,23.954212525816644,0.0
20.0,4752.988606384642,-26.313472521385016,23.954212525816644,0.0
20.1,4750.349159132503,-26.475472521385015,23.954212525816644,0.0
20.200000000000003,4747.693511880364,-26.637472521385014,23.954212525816644,0.0
20.3,4745.021664628225,-26.799472521385013,23.954212525816644,0.0
20.400000000000002,4742.333617376086,-26.961472521385012,23.954212525816644,0.0
20.5,4739.629370123947,-27.12347252138501,23.954212525816644,0.0
20.6,4736.9089228718085,-27.28547252138501,23.954212525816644,0.0
20.700000000000003,4734.17227561967,-27.44747252138501,23.954212525816644,0.0
20.8,4731.4194283675315,-27.60947252138501,23.954212525816644,0.0
20.900000000000002,4728.650381115393,-27.771472521385007,23.954212525816644,0.0
21.0,4725.865133863255,-27.933472521385006,23.954212525816644,0.0
21.1,4723.063686611117,-28.095472521385005,23.954212525816644,0.0
21.200000000000003,4720.246039358979,-28.257472521385004,23.954212525816644,0.0
21.3,4717.412192106841,-28.419472521385003,23.954212525816644,0.0
21.400000000000002,4714.562144854703,-28.581472521385002,23.954212525816644,0.0
21.5,4711.695897602564,-28.743472521385,23.954212525816644,0.0
21.6,4708.813450350426,-28.905472521385,23.954212525816644,0.0
21.700000000000003,4705.914803098288,-29.067472521385,23.954212525816644,0.0
21.8,4702.9999558461495,-29.229472521385,23.954212525816644,0.0
21.900000000000002,4700.068908594011,-29.391472521384998,23.954212525816644,0.0
22.0,4697.121661341873,-29.553472521384997,23.954212525816644,0.0
22.1,4694.158214089734,-29.715472521384996,23.954212525816644,0.0
22.200000000000003,4691.178566837596,-29.877472521384995,23.954212525816644,0.0
22.3,4688.182719585458,-30.039472521384994,23.954212525816644,0.0
22.400000000000002,4685.170672333319,-30.201472521384993,23.954212525816644,0.0
22.5,4682.142425081181,-30.363472521384992,23.954212525816644,0.0
22.6,4679.097977829042,-30.52547252138499,23.954212525816644,0.0
22.700000000000003,4676.0373305769035,-30.68747252138499,23.954212525816644,0.0
22.8,4672.960483324765,-30.84947252138499,23.954212525816644,0.0
22.900000000000002,4669.867436072626,-31.011472521384988,23.954212525816644,0.0
23.0,4666.758188820488,-31.173472521384987,23.954212525816644,0.0
23.1,4663.632741568349,-31.335472521384986,23.954212525816644,0.0
23.200000000000003,4660.49109431621,-31.497472521384985,23.954212525816644,0.0
23.3,4657.333247064072,-31.659472521384984,23.954212525816644,0.0
23.400000000000002,4654.159199811933,-31.821472521384983,23.954212525816644,0.0
23.5,4650.968952559794,-31.983472521384982,23.954212525816644,0.0
23.6,4647.762505307655,-32.14547252138498,23.954212525816644,0.0
23.700000000000003,4644.539858055517,-32.30747252138498,23.954212525816644,0.0
23.8,4641.301010803378,-32.46947252138498,23.954212525816644,0.0
23.900000000000002,4638.045963551239,-32.63147252138498,23.954212525816644,0.0
24.0,4634.7747162991,-32.79347252138498,23.954212525816644,0.0
24.1,4631.487269046961,-32.955472521384976,23.954212525816644,0.0
24.200000000000003,4628.183621794822,-33.117472521384975,23.954212525816644,0.0
24.3,4624.863774542684,-33.279472521384974,23.954212525816644,0.0
24.400000000000002,4621.527727290546,-33.44147252138497,23.954212525816644,0.0
24.5,4618.175480038408,-33.60347252138497,23.954212525816644,0.0
24.6,4614.80703278627,-33.76547252138497,23.954212525816644,0.0
24.700000000000003,4611.4223855341315,-33.92747252138497,23.954212525816644,0.0
24.8,4608.021538281993,-34.08947252138497,23.954212525816644,0.0
24.900000000000002,4604.604491029855,-34.25147252138497,23.954212525816644,0.0
25.0,4601.171243777717,-34.41347252138497,23.954212525816644,0.0
25.1,4597.721796525579,-34.57547252138497,23.954212525816644,0.0
25.200000000000003,4594.25614927344,-34.737472521384966,23.954212525816644,0.0
25.3,4590.774302021302,-34.899472521384965,23.954212525816644,0.0
25.400000000000002,4587.276254769164,-35.061472521384964,23.954212525816644,0.0
25.5,4583.762007517025,-35.22347252138496,23.954212525816644,0.0
