Time[s],Pos[m],V[m/s],mass[kg],T[N]
0.0,5000.0,0.0,24.0,9.85258184221961
0.1,4999.9939526300295,-0.12094731127545945,23.999690877572778,9.90300629028707
0.2,4999.97582106069,-0.2416839864916413,23.999380173090415,9.953702362081803
0.30000000000000004,4999.945626412585,-0.3622088856649605,23.999067878030775,9.914778555877785
0.4,4999.903371192036,-0.4828954360590333,23.99875680419636,9.902164251877455
0.5,4999.849044715084,-0.6036340139449599,23.99844612613275,9.971207175005114
0.6000000000000001,4999.782658792051,-0.7240843564563053,23.998133281863744,9.952421249559341
0.7000000000000001,4999.704223947776,-0.8446124391123802,23.997821026998707,9.947064243843748
0.8,4999.613735206062,-0.9651623053148617,23.997508940208462,9.930490432823804
0.9,4999.511188051416,-1.085780698068131,23.99719737341762,9.876346459572611
1.0,4999.396567802949,-1.2066241826989936,23.996887505381146,9.916707979605908
1.1,4999.269871642405,-1.327298938889606,23.996576371011518,9.866609878027715
1.2000000000000002,4999.131097594348,-1.4481819338342135,23.99626680845799,9.946700819233458
1.3,4998.9802519616715,-1.5687306298525185,23.995954733070104,9.89374218968346
1.4000000000000001,4998.8173404513445,-1.6894994877976934,23.995644319246708,9.943248107195767
1.5,4998.642362397586,-1.8100614975879443,23.995332352186846,9.981851631184899
1.6,4998.45533621382,-1.930462087231927,23.995019173950542,10.004557503533679
1.7000000000000002,4998.2562747296515,-2.0507675052487206,23.99470528332286,9.872884210869572
1.8,4998.045155292725,-2.171621144742137,23.994395523913617,9.935937089406972
1.9000000000000001,4997.821963657607,-2.2922114679514602,23.994083786235212,9.916760883951552
2.0,4997.586709021006,-2.412881174746032,23.99377265020572,9.867107359733362
2.1,4997.339377093264,-2.533757291649364,23.99346307204382,9.87223463109329
2.2,4997.079958648845,-2.6546115082171746,23.99315333301499,9.901861059890534
2.3000000000000003,4996.808460983314,-2.7753417133355636,23.99284266446396,9.954716766888474
2.4000000000000004,4996.524901338977,-2.895851083402957,23.992530337577612,9.905769909954929
2.5,4996.2292805841125,-3.0165639247367255,23.992219546387332,9.903750286336047
2.6,4995.921588150962,-3.137284649176481,23.99190881856227,9.856184100596504
2.7,4995.601813759049,-3.2582031008318904,23.991599583115043,9.923822707737047
2.8000000000000003,4995.269961644878,-3.3788390931154146,23.9912882255225,9.93634115600655
2.9000000000000004,4994.926048567299,-3.4994223687564094,23.9909764751666,9.916726279626479
3.0,4994.570073101061,-3.6200868666578345,23.99066534022281,9.981769662908851
3.1,4994.2020447679315,-3.740479705400548,23.990352164558242,9.903596581160665
3.2,4993.821960885336,-3.861197857391543,23.99004144155564,9.946857349502013
3.3000000000000003,4993.429814230755,-3.981735144322229,23.989729361256654,9.924887446009054
3.4000000000000004,4993.025609295389,-4.102363473510441,23.9894179702582,9.786628998802913
3.5,4992.609312737158,-4.223567604083448,23.989110917085856,9.947505457276081
3.6,4992.180929323409,-4.344100580977759,23.988798816452643,9.956999774234642
3.7,4991.740494617869,-4.464593439730684,23.988486417937477,9.86104696157751
3.8000000000000003,4991.2879906535445,-4.5854857583996065,23.988177029919136,9.957542260492442
3.9000000000000004,4990.823417597132,-4.70597527975504,23.987864614383593,9.927565392343299
4.0,4990.3467893672205,-4.826589228909419,23.987553139365204,9.806301479217037
4.1000000000000005,4989.858074492622,-4.9477081756739105,23.987245468973438,9.914807708453276
4.2,4989.3572703672435,-5.068374242558784,23.986934394224367,10.011395609007138
4.3,4988.844419795593,-5.188637099354593,23.986620289052738,9.944698438076342
4.4,4988.319529062475,-5.309177473121311,23.986308276489087,9.87065012883569
4.5,4987.782568883275,-5.430026022318558,23.985998587173643,9.905159045266709
4.6000000000000005,4987.233531069338,-5.550730167249658,23.9856878151491,9.882951390851032
4.7,4986.672418238265,-5.671526365430203,23.985377739884466,9.80355537273622
4.800000000000001,4986.099209262945,-5.792653053618649,23.98507015565114,9.917024495500627
4.9,4985.513911299332,-5.913306129237848,23.9847590113509,10.037611538469392
5.0,4984.91657319346,-6.033455896626178,23.98444408366068,9.99227799461159
5.1000000000000005,4984.307210687628,-6.153794129249638,23.984130578299688,9.950215402542215
5.2,4983.6858056168485,-6.274307196344876,23.983818392642583,9.8940334949384
5.300000000000001,4983.052337553798,-6.39505397568237,23.98350796967955,9.893374549699105
5.4,4982.406794702135,-6.515802968597086,23.98319756739077,9.89697393944786
5.5,4981.749177728279,-6.636536419458949,23.98288705217199,9.855501682011507
5.6000000000000005,4981.079478789759,-6.757442262633047,23.982577838135484,9.865168762046322
5.7,4980.397691308869,-6.8783072666841605,23.982268320796628,9.957582809841956
5.800000000000001,4979.7038366214465,-6.998786391611455,23.981955903988858,9.863058849661476
5.9,4978.997914341097,-7.11965912691428,23.981646452848004,9.924547428753092
6.0,4978.2799176337885,-7.240274929713596,23.98133507251751,9.907203725728316
6.1000000000000005,4977.549855756952,-7.360962517777943,23.9810242363416,9.804540242511282
6.2,4976.807703742748,-7.482077678873676,23.980716621208217,9.956563241047705
6.300000000000001,4976.0534719358575,-7.602558368802709,23.980404236389177,9.895975119228979
6.4,4975.287179454067,-7.723291177950529,23.980093752508143,9.929031114571751
6.5,4974.508820610519,-7.84388560334887,23.979782231503066,9.82806249319309
6.6000000000000005,4973.718381298281,-7.964900553577397,23.979473878364626,9.895989250828553
6.7,4972.915854681015,-8.085631702693426,23.979163394040217,9.957753059590342
6.800000000000001,4972.1012678543075,-8.206104741281925,23.978850971890903,9.989762030571532
6.9,4971.274640425269,-8.32644374872351,23.978537545467688,9.910597305774552
7.0,4970.435962615158,-8.447112364165248,23.978226602819007,9.973485014960094
7.1000000000000005,4969.585231083918,-8.567518170158765,23.97791368708331,9.953252904188036
7.2,4968.722454780278,-8.688007812549289,23.977601406125306,9.990412686395995
7.300000000000001,4967.847637288351,-8.808341935226908,23.977287959287917,9.894249262135974
7.4,4966.960766358192,-8.929076578907036,23.976977529555242,9.88484544683702
7.5,4966.061820029352,-9.049849909015501,23.97666739486505,9.821559745401137
7.6000000000000005,4965.150783196699,-9.170886656292604,23.976359245748785,9.971448972666563
7.7,4964.227673973624,-9.291297714758606,23.976046393893434,9.952281349103115
7.800000000000001,4963.292519674557,-9.41178817647775,23.975734143417743,9.897787830889461
7.9,4962.3453049919435,-9.532505386671337,23.97542360266331,9.785810395795114
8.0,4961.385995262301,-9.653689119077123,23.975116575174443,9.941629591105931
8.1,4960.414599681856,-9.774222399902692,23.974804658895142,9.961820673931587
8.200000000000001,4959.431155011236,-9.894670922214633,23.97449210912539,9.889033519679586
8.3,4958.435650335214,-10.01542250925671,23.9741818430354,9.967705323272302
8.4,4957.42808693493,-10.135845406014452,23.973869108636162,9.980622611376509
8.5,4956.408483966148,-10.256213879001828,23.973555968960063,9.871282852054616
8.6,4955.376821372816,-10.377037898985074,23.97324625979308,9.818222651900928
8.700000000000001,4954.333065337443,-10.498082720759701,23.972938215377336,10.028424991386448
8.8,4953.277248688174,-10.618250173108326,23.97262357591286,9.97750167167299
8.9,4952.20940469989,-10.73862950199046,23.972310534155508,9.883136067023434
9.0,4951.129503123513,-10.859401936660387,23.9720004530967,9.943292110149722
9.1,4950.037536877589,-10.979922891845126,23.97168848465626,9.840716046453553
9.200000000000001,4948.933497167701,-11.100871217798723,23.971379734515576,9.908204035889788
9.3,4947.81737672856,-11.221537475676403,23.97106886695517,9.784548115722117
9.4,4946.689163897469,-11.34271905900938,23.970761879070043,9.845362664877285
9.5,4945.5488456194435,-11.463646413298127,23.970452983142806,9.957666274474882
9.600000000000001,4944.3964580580805,-11.584104723728169,23.970140563716352,9.930718837726555
9.700000000000001,4943.232019071655,-11.704674915030486,23.96982898975936,9.934695513533747
9.8,4942.05552392255,-11.82522797724588,23.969517291035103,9.858616199740458
9.9,4940.866957624021,-11.946097904870003,23.96920797928134,9.897280936474088
10.0,4939.666312424839,-12.066805989609403,23.968897454430596,9.849779688462197
10.100000000000001,4938.453586534911,-12.187711720650801,23.968588419920287,9.947040186174855
10.200000000000001,4937.228790387704,-12.308211133420487,23.968276333884845,9.9777545067158
10.3,4935.991950733581,-12.42858185842373,23.967963284194852,9.949640540504754
10.4,4934.743068169188,-12.549069339329009,23.967651116573904,9.901199323474179
10.5,4933.482126778109,-12.669758392998784,23.9673404687847,9.889336013581476
10.600000000000001,4932.209114033523,-12.790496409678068,23.967030193204035,9.93822312159765
10.700000000000001,4930.924037712892,-12.911029913037305,23.96671838380191,9.872220826495994
10.8,4929.6268942992065,-13.03183827193841,23.966408645206197,9.94820123550334
10.9,4928.317685927825,-13.152329065604267,23.966096522743104,9.937958292483854
11.0,4926.996426367122,-13.27286205853249,23.96578472164993,10.053888834797718
11.100000000000001,4925.66313772099,-13.3929107720758,23.96546928326338,9.856802220151334
11.200000000000001,4924.317803111882,-13.51378132161025,23.9651600284228,9.969331472869046
11.3,4922.960404952239,-13.63418178077749,23.964847243003504,9.863730536095357
11.4,4921.590944741169,-13.755022352032915,23.964537770788645,9.973477693609505
11.5,4920.209423397572,-13.8754044293189,23.96422485528265,9.929632370234689
11.600000000000001,4918.815854725261,-13.995968927130143,23.96391331541332,9.878747875840721
11.700000000000001,4917.41021901311,-14.116745227014814,23.963603372032974,9.891576271858922
11.8,4915.992508374295,-14.237467460185043,23.963293026164738,10.046876197252338
11.9,4914.562757942886,-14.357541076084749,23.962977807798037,9.884167449550917
12.0,4913.12096622714,-14.478293149860198,23.96266769437985,10.007808253151302
12.100000000000001,4911.667125129563,-14.598528710484901,23.962353701760662,10.043826858353434
12.200000000000001,4910.201268019016,-14.718613408566648,23.96203857906625,9.926090179810652
12.3,4908.723377898676,-14.839188908513801,23.961727150332305,10.079358870701734
12.4,4907.233462237518,-14.959124222108818,23.9614109128294,9.853445223933731
12.5,4905.731505931209,-15.080001815649627,23.96110176331378,10.041595301790146
12.600000000000001,4904.217501153981,-15.200093637062743,23.96078671063393,9.87302389486653
12.700000000000001,4902.691452045341,-15.320888446959357,23.960476946842135,9.969045193038225
12.8,4901.153343519954,-15.441281970248044,23.960164170404802,9.906106290022471
12.9,4899.60318253521,-15.561937635254486,23.959853368660678,9.899384944665226
13.0,4898.040954608142,-15.682620816843219,23.959542777797175,9.856592103645756
13.100000000000001,4896.4666494593885,-15.803482069724287,23.95923352954895,9.97944459229249
13.200000000000001,4894.880283849936,-15.923830028614697,23.958920426832922,9.9766989219598
13.3,4893.281882898809,-16.044188903237696,23.958607410261653,9.846345051597037
13.4,4891.671418883212,-16.16509132037806,23.958298483512262,9.849942203423016
13.5,4890.048865403115,-16.285978193173882,23.957989443903084,10.037595388216255
13.600000000000001,4888.414262425561,-16.40608126612051,23.957674516719575,9.854418681292666
13.700000000000001,4886.767610938684,-16.52694838295237,23.95736533666196,9.989389345924117
13.8,4885.108900935838,-16.647251583042838,23.957051921931637,9.92469784420406
13.9,4883.438147138584,-16.767824272303972,23.95674053688189,9.958630739143228
14.0,4881.755343181507,-16.888254778883827,23.956428087195587,9.943457350778589
14.100000000000001,4880.0604930339805,-17.008748081559414,23.956116113570758,9.834988917627157
14.200000000000001,4878.353570944032,-17.129693629276364,23.955807543117388,9.968387983023968
14.3,4876.634582168734,-17.250081786148332,23.955494787299862,9.93538021854084
14.4,4874.903547715458,-17.370607189404467,23.95518306709315,9.915961339902294
14.5,4873.1604566956385,-17.49121311738668,23.954871956149162,9.957655510552476
14.600000000000001,4871.4053138126255,-17.611644452510724,23.954559537060426,9.902122486970056
14.700000000000001,4869.638116231781,-17.732307075028995,23.95424886030718,0.0
14.8,4867.856785524278,-17.894307075028994,23.95424886030718,0.0
14.9,4866.059254816775,-18.056307075028993,23.95424886030718,0.0
15.0,4864.245524109272,-18.218307075028992,23.95424886030718,0.0
15.100000000000001,4862.415593401769,-18.38030707502899,23.95424886030718,0.0
15.200000000000001,4860.569462694266,-18.54230707502899,23.95424886030718,0.0
15.3,4858.707131986763,-18.70430707502899,23.95424886030718,0.0
15.4,4856.82860127926,-18.86630707502899,23.95424886030718,0.0
15.5,4854.933870571756,-19.028307075028987,23.95424886030718,0.0
15.600000000000001,4853.022939864253,-19.190307075028986,23.95424886030718,0.0
15.700000000000001,4851.09580915675,-19.352307075028985,23.95424886030718,0.0
15.8,4849.152478449247,-19.514307075028984,23.95424886030718,0.0
15.9,4847.192947741743,-19.676307075028983,23.95424886030718,0.0
16.0,4845.21721703424,-19.838307075028982,23.95424886030718,0.0
16.1,4843.225286326737,-20.00030707502898,23.95424886030718,0.0
16.2,4841.217155619234,-20.16230707502898,23.95424886030718,0.0
16.3,4839.192824911732,-20.32430707502898,23.95424886030718,0.0
16.400000000000002,4837.152294204229,-20.48630707502898,23.95424886030718,0.0
16.5,4835.095563496727,-20.648307075028978,23.95424886030718,0.0
16.6,4833.022632789224,-20.810307075028977,23.95424886030718,0.0
16.7,4830.933502081722,-20.972307075028976,23.95424886030718,0.0
16.8,4828.828171374219,-21.134307075028975,23.95424886030718,0.0
16.900000000000002,4826.706640666716,-21.296307075028974,23.95424886030718,0.0
17.0,4824.568909959214,-21.458307075028973,23.95424886030718,0.0
17.1,4822.414979251711,-21.620307075028972,23.95424886030718,0.0
17.2,4820.244848544208,-21.78230707502897,23.95424886030718,0.0
17.3,4818.0585178367055,-21.94430707502897,23.95424886030718,0.0
17.400000000000002,4815.855987129203,-22.10630707502897,23.95424886030718,0.0
17.5,4813.6372564217,-22.268307075028968,23.95424886030718,0.0
17.6,4811.402325714197,-22.430307075028967,23.95424886030718,0.0
17.7,4809.151195006694,-22.592307075028966,23.95424886030718,0.0
17.8,4806.883864299191,-22.754307075028965,23.95424886030718,0.0
17.900000000000002,4804.6003335916885,-22.916307075028964,23.95424886030718,0.0
18.0,4802.3006028841855,-23.078307075028963,23.95424886030718,0.0
18.1,4799.984672176683,-23.240307075028962,23.95424886030718,0.0
18.2,4797.65254146918,-23.40230707502896,23.95424886030718,0.0
18.3,4795.304210761677,-23.56430707502896,23.95424886030718,0.0
18.400000000000002,4792.939680054174,-23.72630707502896,23.95424886030718,0.0
18.5,4790.5589493466705,-23.88830707502896,23.95424886030718,0.0
18.6,4788.162018639167,-24.050307075028957,23.95424886030718,0.0
18.7,4785.748887931664,-24.212307075028956,23.95424886030718,0.0
18.8,4783.319557224161,-24.374307075028955,23.95424886030718,0.0
18.900000000000002,4780.874026516658,-24.536307075028954,23.95424886030718,0.0
19.0,4778.412295809155,-24.698307075028954,23.95424886030718,0.0
19.1,4775.934365101652,-24.860307075028953,23.95424886030718,0.0
19.200000000000003,4773.440234394148,-25.02230707502895,23.95424886030718,0.0
19.3,4770.929903686645,-25.18430707502895,23.95424886030718,0.0
19.400000000000002,4768.403372979142,-25.34630707502895,23.95424886030718,0.0
19.5,4765.860642271638,-25.50830707502895,23.95424886030718,0.0
19.6,4763.301711564136,-25.670307075028948,23.95424886030718,0.0
19.700000000000003,4760.7265808566335,-25.832307075028947,23.95424886030718,0.0
19.8,4758.135250149131,-25.994307075028946,23.95424886030718,0.0
19.900000000000002,4755.5277194416285,-26.156307075028945,23.95424886030718,0.0
20.0,4752.903988734126,-26.318307075028944,23.95424886030718,0.0
20.1,4750.264058026623,-26.480307075028943,23.95424886030718,0.0
20.200000000000003,4747.607927319121,-26.642307075028942,23.95424886030718,0.0
20.3,4744.935596611618,-26.80430707502894,23.95424886030718,0.0
20.400000000000002,4742.2470659041155,-26.96630707502894,23.95424886030718,0.0
20.5,4739.542335196613,-27.12830707502894,23.95424886030718,0.0
20.6,4736.82140448911,-27.290307075028938,23.95424886030718,0.0
20.700000000000003,4734.084273781607,-27.452307075028937,23.95424886030718,0.0
20.8,4731.330943074105,-27.614307075028936,23.95424886030718,0.0
20.900000000000002,4728.561412366602,-27.776307075028935,23.95424886030718,0.0
21.0,4725.775681659099,-27.938307075028934,23.95424886030718,0.0
21.1,4722.973750951596,-28.100307075028933,23.95424886030718,0.0
21.200000000000003,4720.155620244093,-28.262307075028932,23.95424886030718,0.0
21.3,4717.3212895365905,-28.42430707502893,23.95424886030718,0.0
21.400000000000002,4714.470758829088,-28.58630707502893,23.95424886030718,0.0
21.5,4711.604028121585,-28.74830707502893,23.95424886030718,0.0
21.6,4708.721097414082,-28.91030707502893,23.95424886030718,0.0
21.700000000000003,4705.821966706579,-29.072307075028927,23.95424886030718,0.0
21.8,4702.906635999076,-29.234307075028926,23.95424886030718,0.0
21.900000000000002,4699.975105291573,-29.396307075028925,23.95424886030718,0.0
22.0,4697.02737458407,-29.558307075028925,23.95424886030718,0.0
22.1,4694.063443876566,-29.720307075028924,23.95424886030718,0.0
22.200000000000003,4691.083313169063,-29.882307075028923,23.95424886030718,0.0
22.3,4688.08698246156,-30.04430707502892,23.95424886030718,0.0
22.400000000000002,4685.074451754057,-30.20630707502892,23.95424886030718,0.0
22.5,4682.045721046554,-30.36830707502892,23.95424886030718,0.0
22.6,4679.000790339051,-30.53030707502892,23.95424886030718,0.0
22.700000000000003,4675.939659631547,-30.692307075028918,23.95424886030718,0.0
22.8,4672.862328924044,-30.854307075028917,23.95424886030718,0.0
22.900000000000002,4669.768798216541,-31.016307075028916,23.95424886030718,0.0
23.0,4666.659067509037,-31.178307075028915,23.95424886030718,0.0
23.1,4663.533136801535,-31.340307075028914,23.95424886030718,0.0
23.200000000000003,4660.3910060940325,-31.502307075028913,23.95424886030718,0.0
23.3,4657.23267538653,-31.664307075028912,23.95424886030718,0.0
23.400000000000002,4654.0581446790275,-31.82630707502891,23.95424886030718,0.0
23.5,4650.867413971525,-31.98830707502891,23.95424886030718,0.0
23.6,4647.660483264022,-32.15030707502891,23.95424886030718,0.0
23.700000000000003,4644.43735255652,-32.31230707502891,23.95424886030718,0.0
23.8,4641.198021849017,-32.47430707502891,23.95424886030718,0.0
23.900000000000002,4637.942491141514,-32.63630707502891,23.95424886030718,0.0
24.0,4634.670760434012,-32.79830707502891,23.95424886030718,0.0
24.1,4631.382829726509,-32.96030707502891,23.95424886030718,0.0
24.200000000000003,4628.078699019006,-33.12230707502891,23.95424886030718,0.0
24.3,4624.758368311504,-33.284307075028906,23.95424886030718,0.0
24.400000000000002,4621.421837604001,-33.446307075028905,23.95424886030718,0.0
24.5,4618.069106896498,-33.608307075028904,23.95424886030718,0.0
24.6,4614.700176188995,-33.7703070750289,23.95424886030718,0.0
24.700000000000003,4611.315045481492,-33.9323070750289,23.95424886030718,0.0
24.8,4607.913714773989,-34.0943070750289,23.95424886030718,0.0
24.900000000000002,4604.496184066486,-34.2563070750289,23.95424886030718,0.0
25.0,4601.0624533589835,-34.4183070750289,23.95424886030718,0.0
25.1,4597.6125226514805,-34.5803070750289,23.95424886030718,0.0
25.200000000000003,4594.1463919439775,-34.7423070750289,23.95424886030718,0.0
25.3,4590.6640612364745,-34.904307075028896,23.95424886030718,0.0
25.400000000000002,4587.165530528971,-35.066307075028895,23.95424886030718,0.0
25.5,4583.650799821468,-35.228307075028894,23.95424886030718,0.0
25.6,4580.119869113965,-35.39030707502889,23.95424886030718,0.0
25.700000000000003,4576.572738406462,-35.55230707502889,23.95424886030718,0.0
