Time[s],Pos[m],V[m/s],mass[kg],T[N]
0.0,5000.0,0.0,24.0,9.966887843186418
0.1,4999.993976443986,-0.120471030101296,23.999687291249007,9.84786779182144
0.2,4999.975881015636,-0.2414374488545742,23.999378316724002,9.885435891908937
0.30000000000000004,4999.945696798783,-0.3622467995025471,23.999068163508735,10.014011221907122
0.4,4999.90345846128,-0.4825198595056162,23.99875397627287,9.966633396985166
0.5,4999.849182974112,-0.6029897936555414,23.998441275505066,9.879789558084196
0.6000000000000001,4999.782842426789,-0.7238210641893107,23.99813129944219,9.957257442294262
0.7000000000000001,4999.704434919539,-0.8443289907850198,23.997818892842748,9.910532857513145
0.8,4999.61396691138,-0.9650310832214541,23.997507952216115,9.848299628207952
0.9,4999.511415754018,-1.0859919759486172,23.997198964142346,10.011208401728876
1.0,4999.396802477388,-1.206273465652457,23.9968848648443,9.926222801597206
1.1,4999.270143371305,-1.3269085665432812,23.99657343194938,9.96578635070321
1.2000000000000002,4999.131429025629,-1.4473782567830729,23.996260757757454,10.001547192987982
1.3,4998.9806751893875,-1.5676983772008668,23.995946961577552,9.942562513430602
1.4000000000000001,4998.817877077699,-1.6882637667801887,23.995635016028032,9.914482991025855
1.5,4998.643016602971,-1.8089456385140712,23.995323951466894,9.904813186897272
1.6,4998.456085952898,-1.9296672738392096,23.995013190293577,9.999385114342818
1.7000000000000002,4998.257102872773,-2.0499942378410743,23.994699461948382,9.990789172102424
1.8,4998.04608533226,-2.1703564817747303,23.994386003298843,9.919239949329286
1.9000000000000001,4997.823016684845,-2.2910163771512493,23.99407478948926,9.89502488468522
2.0,4997.587877028608,-2.411776658650623,23.993764335421613,9.896387227616463
2.1,4997.340661654799,-2.5325307285703924,23.993453838610776,10.053133262960797
2.2,4997.081403565304,-2.6526309695372707,23.993138423930116,9.89980792338456
2.3000000000000003,4996.81010352706,-2.7733697063035967,23.992827819795757,10.001007177870555
2.4000000000000004,4996.526750731511,-2.8936861138135495,23.9925140405587,9.871794089061616
2.5,4996.231339394443,-3.014540539024601,23.992204315351774,9.75642356367088
2.6,4995.92381859787,-3.135875305956314,23.99189820986782,10.123101690636881
2.7,4995.604240768282,-3.255681192724513,23.991580599944275,9.8959802495052
2.8000000000000003,4995.27263504396,-3.376433204737108,23.991270115902278,9.905069331591529
2.9000000000000004,4994.928956039392,-3.497146797487309,23.99095934669248,10.009234969738795
3.0,4994.57322741183,-3.617425662724762,23.9906453093104,9.921189711514446
3.1,4994.205452574977,-3.738070984902959,23.99033403432749,9.881655059813305
3.2,4993.8256049929605,-3.8588805667200203,23.990023999734934,9.914765152256232
3.3000000000000003,4993.433683380242,-3.979551598336241,23.989712926321054,9.933226853712075
3.4000000000000004,4993.029698539028,-4.100145136297588,23.989401273675654,10.034406126799421
3.5,4992.613675459425,-4.220316364263523,23.989086446554467,9.905834557915677
3.6,4992.185608486311,-4.34102300885127,23.988775653335875,9.96436574763445
3.7,4991.745483075297,-4.461485121208971,23.988463023715035,9.984817362933315
3.8000000000000003,4991.293315742953,-4.581861435061457,23.988149752429596,9.918553517937903
3.9000000000000004,4990.8290969944965,-4.702513444673212,23.987838560156636,9.954767634554358
4.0,4990.352820620396,-4.823013947262866,23.987526231674327,9.993120216932184
4.1000000000000005,4989.8645022174005,-4.943354021895352,23.987212699888808,9.882095224608282
4.2,4989.36412669143,-5.064156408755988,23.986902651486186,9.997399246932705
4.3,4988.851694988395,-5.1844775611009695,23.98658898544711,9.933404951986532
4.4,4988.327217857663,-5.305064963874088,23.986277327213916,9.988073114270378
4.5,4987.790693409372,-5.425423911266568,23.98596395378005,9.883142164873972
4.6000000000000005,4987.242111219947,-5.546219788442129,23.985653872529927,9.945154035903673
4.7,4986.681462396418,-5.666756592245556,23.985341845672004,10.026138742676379
4.800000000000001,4986.1087768017505,-5.7869552097421835,23.98502727793804,9.890071623541248
4.9,4985.5240430074855,-5.907720586640387,23.98471697927779,9.848593988393157
5.0,4984.92722405545,-6.02865836590367,23.984407981968538,9.872789931252951
5.1000000000000005,4984.318316396081,-6.149494732878761,23.984098225517297,9.837262597537533
5.2,4983.697317720097,-6.270478698832012,23.98378958372776,9.931951243329781
5.300000000000001,4983.064240414214,-6.3910673291636595,23.98347797110433,9.9381940909019
5.4,4982.4191055737,-6.511629391319448,23.98316616261304,9.973269391729035
5.5,4981.761921866455,-6.632044663158784,23.982853253642467,9.901776332744726
5.6000000000000005,4981.0926817539885,-6.752757497029163,23.98254258774973,9.865998251266005
5.7,4980.41136292562,-6.873618981852651,23.982233044385847,9.934834634866244
5.800000000000001,4979.717972326979,-6.994192901221188,23.98192134129669,9.901188992782183
5.9,4979.01251734847,-7.114906579831558,23.981610693831605,10.008202043007492
6.0,4978.295013340515,-7.235173488201826,23.981296688857356,9.902149892133288
6.1000000000000005,4977.565460557423,-7.355882084478663,23.98098601124428,9.982957088571501
6.2,4976.823853789777,-7.47625317782074,23.980672798324512,9.935424623497934
6.300000000000001,4976.070200029319,-7.596821941582079,23.980361076724602,10.06059374127267
6.4,4975.304515517896,-7.716868194837116,23.9800454279732,10.096166572397868
6.5,4974.526833825998,-7.836765550427801,23.979728663132626,9.910217296676178
6.6000000000000005,4973.73712365383,-7.9574378036197935,23.979417732406638,9.930984256184892
6.7,4972.9353506133375,-8.078022916536739,23.979106150122206,9.804208910855394
6.800000000000001,4972.1214926536895,-8.199136189006675,23.978798545384276,10.004023877852003
6.9,4971.295565058304,-8.31941562767816,23.978484671498972,9.917412413897223
7.0,4970.457591485955,-8.440055729849322,23.978173515027883,9.887039760970913
7.1000000000000005,4969.607547596775,-8.56082196486213,23.977863311491603,9.821189621836616
7.2,4968.745413379203,-8.681862298855064,23.977555173987877,9.864809424364923
7.300000000000001,4967.871184250594,-8.802720184817213,23.977245667923157,9.965275454752629
7.4,4966.984890310409,-8.923158528545821,23.976933009760472,9.926004686215453
7.5,4966.086544373598,-9.043760118060911,23.97662158370887,10.034490185611217
7.6000000000000005,4965.176160928101,-9.163908700290976,23.976306753950357,9.943966664854294
7.7,4964.25374377399,-9.284434291972117,23.97599476434592,9.96110911897678
7.800000000000001,4963.319277662647,-9.404887844623222,23.975682236901033,9.982263799492786
7.9,4962.372770634852,-9.52525262064952,23.975369045733046,9.909893139537713
8.0,4961.414212063806,-9.645918710924985,23.975058125177412,9.894165490378724
8.1,4960.443583630505,-9.766649866054212,23.974747698073056,9.917105099994666
8.200000000000001,4959.460886892568,-9.887284803205306,23.97443655124387,9.933178945849901
8.3,4958.466130040076,-10.007852156863791,23.974124900101565,9.867250597590399
8.4,4957.459302729133,-10.12869397341333,23.97381531744561,9.982008941644377
8.5,4956.440415197418,-10.24905657022873,23.973502134273726,10.00328301835537
8.6,4955.409495870255,-10.369329881978471,23.973188283632712,9.971644760559718
8.700000000000001,4954.366542640499,-10.489734622683915,23.972875425634562,9.85548469546497
8.8,4953.311524736208,-10.610623374736463,23.972566212131007,9.956428702371596
8.9,4952.244439037477,-10.731090509691,23.972253831533084,9.946735253106532
9.0,4951.165304630487,-10.851597540076854,23.971941755064844,9.897294156391432
9.1,4950.074109235094,-10.972310278655373,23.971631229799332,9.997253676682279
9.200000000000001,4948.97086344231,-11.092605486074005,23.97131756832749,9.994943739287208
9.3,4947.855587674252,-11.21290978416898,23.971003979329385,9.841276883192794
9.4,4946.728249450727,-11.333854598185116,23.97069521159258,9.941931728808052
9.5,4945.588837767819,-11.454378970015917,23.97038328583378,9.906872095720143
9.600000000000001,4944.437366361536,-11.575049066318842,23.970072460062685,9.808327644992701
9.700000000000001,4943.273807416516,-11.696129746517904,23.969764726100443,9.817288221616774
9.8,4942.098142298902,-11.817172518062986,23.96945671100223,10.061534481902697
9.9,4940.9104238803675,-11.937195760478906,23.969141032735312,9.912490537826699
10.0,4939.710672074165,-12.05784027413656,23.96883003068692,9.894375411194153
10.100000000000001,4938.498852064501,-12.178559830022817,23.968519596996348,9.95734388711249
10.200000000000001,4937.274973261758,-12.299016134592884,23.968207187684722,9.948707567735434
10.3,4936.039047053997,-12.419507930531216,23.967895049335578,10.025032463862642
10.4,4934.791087616129,-12.539680735345565,23.96758051631085,9.903823768875498
10.5,4933.531085639037,-12.660358717204206,23.96726978618029,9.818873784240882
10.600000000000001,4932.258998168311,-12.781390609546794,23.966961721335423,9.87326153374747
10.700000000000001,4930.974818881179,-12.902195044357136,23.966651950087765,9.848859554285434
10.8,4929.678554086326,-13.023100764410339,23.96634294444645,9.967122673298848
10.9,4928.370223418922,-13.143512493212027,23.966030228327718,9.78068014757319
11.0,4927.049812708188,-13.264701634375761,23.965723361799174,9.981259394678794
11.100000000000001,4925.717324956936,-13.385053299973217,23.96541020214415,9.957758915026828
11.200000000000001,4924.3727971632925,-13.505502482615235,23.96509777981112,9.968917786263372
11.3,4923.01622680664,-13.6259045599553,23.964785007371145,9.913256100508024
11.4,4921.647604656073,-13.74653836189666,23.964473981303406,10.006598818730291
11.5,4920.266938627553,-13.86678211732179,23.96416002662994,9.901391479464506
11.600000000000001,4918.874226299677,-13.98746435093144,23.963849372811882,10.014879038402217
11.700000000000001,4917.469469454335,-14.107672464574552,23.96353515834848,9.81800558020215
11.8,4916.052650746957,-14.228701595216993,23.963227120743312,9.942646321789809
11.9,4914.6237551597405,-14.349210059090087,23.962915172564326,9.879440955726762
12.0,4913.182795564867,-14.469981749506674,23.962605207438767,10.00974499913155
12.100000000000001,4911.729786016892,-14.59020911874803,23.962291154054633,9.985519854994276
12.200000000000001,4910.264748704475,-14.71053703877512,23.961977860728673,9.866963500260173
12.3,4908.787653888651,-14.831359189034869,23.96166828708033,10.028309244029149
12.4,4907.298510552163,-14.95150744914635,23.9613536512474,9.956009365994952
12.5,4905.797337330241,-15.071956899013667,23.961041283806058,9.873355144345211
12.600000000000001,4904.28410194264,-15.192750764227949,23.96073150962139,9.971123208002291
12.700000000000001,4902.758807597058,-15.31313605685474,23.960418667986826,9.90222752460771
12.8,4901.221460372278,-15.433808349436807,23.96010798793805,9.898102688639945
12.9,4899.672045084254,-15.554497321792065,23.959797437305028,10.068441474269727
13.0,4898.110596472869,-15.674474813570711,23.959481542332856,9.96259302645492
13.100000000000001,4896.5371280507625,-15.794893538136508,23.959168968330726,9.962376199557038
13.200000000000001,4894.951617738074,-15.915312625221647,23.958856401131488,10.065963083903336
13.3,4893.35408716165,-16.03529881096045,23.95854058391823,9.901839814605111
13.4,4891.744523742527,-16.155969482162078,23.958229916033762,9.835506373545536
13.5,4890.122879439401,-16.276916492228416,23.957921329345336,9.943763747087958
13.600000000000001,4888.489163055134,-16.397411103027654,23.957609346107393,10.016256018624041
13.700000000000001,4886.843412366223,-16.517602583791433,23.957295088441562,10.045513266592595
13.8,4885.185648662835,-16.637671392026686,23.956979912836488,9.915687589803468
13.9,4883.515851010385,-16.75828156739779,23.956668810481347,9.995169950323275
14.0,4881.834008956192,-16.8785594254379,23.956355214385926,9.88815781658619
14.100000000000001,4880.140116808498,-16.999283439357136,23.956044975770915,9.976832122278807
14.200000000000001,4878.434170794008,-17.11963675972414,23.955731955020514,9.913643181260081
14.3,4876.716176285888,-17.240253313126978,23.955420916808208,9.810149644231066
14.4,4874.986098547831,-17.361301360324006,23.955113125681173,9.916954371843707
14.5,4873.243938324234,-17.481903022007746,23.954801983581046,9.899318816072068
14.600000000000001,4871.489714280315,-17.602577767059696,23.954491394792313,9.843544756235515
14.700000000000001,4869.723411146911,-17.72348481271701,23.95418255590153,0.0
14.8,4867.942962665639,-17.88548481271701,23.95418255590153,0.0
14.9,4866.146314184368,-18.04748481271701,23.95418255590153,0.0
15.0,4864.333465703096,-18.209484812717008,23.95418255590153,0.0
15.100000000000001,4862.504417221825,-18.371484812717007,23.95418255590153,0.0
15.200000000000001,4860.6591687405535,-18.533484812717006,23.95418255590153,0.0
15.3,4858.797720259282,-18.695484812717005,23.95418255590153,0.0
15.4,4856.92007177801,-18.857484812717004,23.95418255590153,0.0
15.5,4855.026223296739,-19.019484812717003,23.95418255590153,0.0
15.600000000000001,4853.116174815467,-19.181484812717002,23.95418255590153,0.0
15.700000000000001,4851.189926334196,-19.343484812717,23.95418255590153,0.0
15.8,4849.247477852924,-19.505484812717,23.95418255590153,0.0
15.9,4847.288829371652,-19.667484812717,23.95418255590153,0.0
16.0,4845.313980890381,-19.829484812717,23.95418255590153,0.0
16.1,4843.322932409109,-19.991484812716998,23.95418255590153,0.0
16.2,4841.315683927837,-20.153484812716997,23.95418255590153,0.0
16.3,4839.292235446565,-20.315484812716996,23.95418255590153,0.0
16.400000000000002,4837.252586965294,-20.477484812716995,23.95418255590153,0.0
16.5,4835.196738484022,-20.639484812716994,23.95418255590153,0.0
16.6,4833.12469000275,-20.801484812716993,23.95418255590153,0.0
16.7,4831.036441521478,-20.96348481271699,23.95418255590153,0.0
16.8,4828.931993040206,-21.12548481271699,23.95418255590153,0.0
16.900000000000002,4826.811344558934,-21.28748481271699,23.95418255590153,0.0
17.0,4824.674496077662,-21.44948481271699,23.95418255590153,0.0
17.1,4822.52144759639,-21.611484812716988,23.95418255590153,0.0
17.2,4820.352199115118,-21.773484812716987,23.95418255590153,0.0
17.3,4818.166750633846,-21.935484812716986,23.95418255590153,0.0
17.400000000000002,4815.965102152574,-22.097484812716985,23.95418255590153,0.0
17.5,4813.747253671302,-22.259484812716984,23.95418255590153,0.0
17.6,4811.51320519003,-22.421484812716983,23.95418255590153,0.0
17.7,4809.262956708758,-22.583484812716982,23.95418255590153,0.0
17.8,4806.996508227487,-22.74548481271698,23.95418255590153,0.0
17.900000000000002,4804.713859746215,-22.90748481271698,23.95418255590153,0.0
18.0,4802.415011264944,-23.06948481271698,23.95418255590153,0.0
18.1,4800.099962783673,-23.231484812716978,23.95418255590153,0.0
18.2,4797.768714302401,-23.393484812716977,23.95418255590153,0.0
18.3,4795.42126582113,-23.555484812716976,23.95418255590153,0.0
18.400000000000002,4793.057617339859,-23.717484812716975,23.95418255590153,0.0
18.5,4790.677768858587,-23.879484812716974,23.95418255590153,0.0
18.6,4788.281720377316,-24.041484812716973,23.95418255590153,0.0
18.7,4785.869471896044,-24.203484812716972,23.95418255590153,0.0
18.8,4783.441023414773,-24.36548481271697,23.95418255590153,0.0
18.900000000000002,4780.996374933501,-24.52748481271697,23.95418255590153,0.0
19.0,4778.5355264522295,-24.68948481271697,23.95418255590153,0.0
19.1,4776.058477970958,-24.85148481271697,23.95418255590153,0.0
19.200000000000003,4773.565229489686,-25.013484812716968,23.95418255590153,0.0
19.3,4771.055781008415,-25.175484812716967,23.95418255590153,0.0
19.400000000000002,4768.530132527143,-25.337484812716966,23.95418255590153,0.0
19.5,4765.988284045871,-25.499484812716965,23.95418255590153,0.0
19.6,4763.4302355646,-25.661484812716964,23.95418255590153,0.0
19.700000000000003,4760.855987083328,-25.823484812716963,23.95418255590153,0.0
19.8,4758.265538602056,-25.98548481271696,23.95418255590153,0.0
19.900000000000002,4755.658890120784,-26.14748481271696,23.95418255590153,0.0
20.0,4753.036041639512,-26.30948481271696,23.95418255590153,0.0
20.1,4750.396993158241,-26.47148481271696,23.95418255590153,0.0
20.200000000000003,4747.741744676969,-26.633484812716958,23.95418255590153,0.0
20.3,4745.070296195697,-26.795484812716957,23.95418255590153,0.0
20.400000000000002,4742.382647714425,-26.957484812716956,23.95418255590153,0.0
20.5,4739.678799233153,-27.119484812716955,23.95418255590153,0.0
20.6,4736.958750751881,-27.281484812716954,23.95418255590153,0.0
20.700000000000003,4734.222502270609,-27.443484812716953,23.95418255590153,0.0
20.8,4731.470053789337,-27.605484812716952,23.95418255590153,0.0
20.900000000000002,4728.701405308065,-27.76748481271695,23.95418255590153,0.0
21.0,4725.916556826793,-27.92948481271695,23.95418255590153,0.0
21.1,4723.1155083455205,-28.09148481271695,23.95418255590153,0.0
21.200000000000003,4720.298259864248,-28.25348481271695,23.95418255590153,0.0
21.3,4717.464811382977,-28.415484812716947,23.95418255590153,0.0
21.400000000000002,4714.615162901706,-28.577484812716946,23.95418255590153,0.0
21.5,4711.7493144204345,-28.739484812716945,23.95418255590153,0.0
21.6,4708.867265939163,-28.901484812716944,23.95418255590153,0.0
21.700000000000003,4705.969017457892,-29.063484812716943,23.95418255590153,0.0
21.8,4703.05456897662,-29.225484812716942,23.95418255590153,0.0
21.900000000000002,4700.123920495349,-29.38748481271694,23.95418255590153,0.0
22.0,4697.177072014078,-29.54948481271694,23.95418255590153,0.0
22.1,4694.214023532806,-29.71148481271694,23.95418255590153,0.0
22.200000000000003,4691.234775051535,-29.87348481271694,23.95418255590153,0.0
22.3,4688.239326570263,-30.035484812716938,23.95418255590153,0.0
22.400000000000002,4685.2276780889915,-30.197484812716937,23.95418255590153,0.0
22.5,4682.19982960772,-30.359484812716936,23.95418255590153,0.0
22.6,4679.155781126448,-30.521484812716935,23.95418255590153,0.0
22.700000000000003,4676.095532645177,-30.683484812716934,23.95418255590153,0.0
22.8,4673.019084163905,-30.845484812716933,23.95418255590153,0.0
22.900000000000002,4669.926435682633,-31.007484812716932,23.95418255590153,0.0
23.0,4666.817587201362,-31.16948481271693,23.95418255590153,0.0
23.1,4663.69253872009,-31.33148481271693,23.95418255590153,0.0
23.200000000000003,4660.551290238818,-31.49348481271693,23.95418255590153,0.0
23.3,4657.393841757546,-31.655484812716928,23.95418255590153,0.0
23.400000000000002,4654.220193276275,-31.817484812716927,23.95418255590153,0.0
23.5,4651.030344795003,-31.979484812716926,23.95418255590153,0.0
23.6,4647.824296313731,-32.141484812716925,23.95418255590153,0.0
23.700000000000003,4644.602047832459,-32.303484812716924,23.95418255590153,0.0
23.8,4641.363599351187,-32.46548481271692,23.95418255590153,0.0
23.900000000000002,4638.108950869915,-32.62748481271692,23.95418255590153,0.0
24.0,4634.838102388643,-32.78948481271692,23.95418255590153,0.0
24.1,4631.551053907371,-32.95148481271692,23.95418255590153,0.0
24.200000000000003,4628.247805426099,-33.11348481271692,23.95418255590153,0.0
24.3,4624.928356944827,-33.27548481271692,23.95418255590153,0.0
24.400000000000002,4621.592708463555,-33.43748481271692,23.95418255590153,0.0
24.5,4618.240859982283,-33.599484812716916,23.95418255590153,0.0
24.6,4614.872811501011,-33.761484812716915,23.95418255590153,0.0
24.700000000000003,4611.48856301974,-33.923484812716914,23.95418255590153,0.0
24.8,4608.088114538468,-34.08548481271691,23.95418255590153,0.0
24.900000000000002,4604.671466057197,-34.24748481271691,23.95418255590153,0.0
25.0,4601.238617575926,-34.40948481271691,23.95418255590153,0.0
25.1,4597.789569094654,-34.57148481271691,23.95418255590153,0.0
25.200000000000003,4594.324320613383,-34.73348481271691,23.95418255590153,0.0
25.3,4590.842872132112,-34.89548481271691,23.95418255590153,0.0
25.400000000000002,4587.34522365084,-35.05748481271691,23.95418255590153,0.0
25.5,4583.831375169569,-35.21948481271691,23.95418255590153,0.0
25.6,4580.301326688297,-35.381484812716906,23.95418255590153,0.0
25.700000000000003,4576.755078207026,-35.543484812716905,23.95418255590153,0.0
