Time[s],Pos[m],V[m/s],mass[kg],T[N]
0.0,5000.0,0.0,24.0,9.973359366812936
0.1,4999.993977792232,-0.12044406506806304,23.999687088206482,9.848989648674198
0.2,4999.975885294128,-0.24140580894950353,23.999378078483485,10.104449360881075
0.30000000000000004,4999.945749870671,-0.361302567495397,23.99906105377238,9.953696432956663
0.4,4999.903593390804,-0.48182693987011566,23.998748758898767,9.810855920634252
0.5,4999.84935474044,-0.6029459800423921,23.998440945612476,10.029358780731128
0.6000000000000001,4999.783049737055,-0.7231539963182688,23.99812627685058,9.898372238792145
0.7000000000000001,4999.704696668212,-0.843907291586266,23.99781571776049,9.947988746740899
0.8,4999.6142786343335,-0.9644532961222008,23.99750360196418,10.010015531984227
0.9,4999.511818950663,-1.0847402863004727,23.997189540092144,10.015273509515403
1.0,4999.3973316908205,-1.2050048194661374,23.996875313252303,9.924976304229904
1.1,4999.270799190456,-1.3256450983749133,23.99656391946594,9.872513414974435
1.2000000000000002,4999.132191757609,-1.4465034700739456,23.996254171690335,9.994449503749603
1.3,4998.981523921681,-1.5668531577604006,23.995940598198757,9.945956253548019
1.4000000000000001,4998.818811039642,-1.6874043931919058,23.995628546171442,9.983474518978305
1.5,4998.644050878808,-1.807798732975759,23.995315317017415,9.837490789406608
1.6,4998.457220891673,-1.9288009218229207,23.99500666806841,9.848116774895281
1.7000000000000002,4998.258292926249,-2.049758298586791,23.99469768573162,9.977812295075731
1.8,4998.047296275678,-2.1701746224135663,23.99438463422853,10.000630641814965
1.9000000000000001,4997.824262774827,-2.2904953037626794,23.994070866805206,9.847292258487013
2.0,4997.589165279426,-2.4114545161765664,23.993761910337426,9.94909532702711
2.1,4997.341993103877,-2.5319889048984927,23.993449759822425,9.940202766156506
2.2,4997.08276566329,-2.65255981709094,23.99313788830942,9.925432483998012
2.3000000000000003,4996.811478080361,-2.773191752012941,23.992826480210528,9.856940377147726
2.4000000000000004,4996.528113057207,-2.8941086228031017,23.992517221035303,9.906100494744804
2.5,4996.232666618425,-3.0148200636812534,23.992206419473003,9.929150687317847
2.6,4995.925153866025,-3.135434894779398,23.99189489471636,10.015954897256751
2.7,4995.605597747859,-3.25568737739168,23.99158064649814,9.88119068679762
2.8000000000000003,4995.2739883228005,-3.376501035084837,23.99127062647518,10.015083821634052
2.9000000000000004,4994.930325463378,-3.4967560622427674,23.990956405586754,9.968441029730743
3.0,4994.574627407581,-3.617204963410227,23.9906436481049,10.062616460510323
3.1,4994.206904116457,-3.7372607670821476,23.99032793589116,10.01704964452126
3.2,4993.827165775568,-3.857505959538569,23.9900136533255,9.849061767991595
3.3000000000000003,4993.435367930438,-3.9784508549310753,23.989704641339777,9.92109970332236
3.4000000000000004,4993.031490636683,-4.099094930727222,23.989393369180853,9.940023007686072
3.5,4992.615552906312,-4.219659586922554,23.989081503307727,10.039298308289878
3.6,4992.187579429203,-4.3398098636794735,23.988766522695503,10.021435816845907
3.7,4991.747587228765,-4.460034053809063,23.988452102514728,9.897029549410052
3.8000000000000003,4991.295546706018,-4.5807763121115315,23.988141585551197,9.835079360823524
3.9000000000000004,4990.8314190713645,-4.701776293066967,23.987833012260193,9.908833698881876
4.0,4990.355206838399,-4.822468277021302,23.98752212494426,9.837093448387025
4.1000000000000005,4989.866910480017,-4.943458802668831,23.987213488461734,9.98456833432863
4.2,4989.366545836032,-5.063833986443529,23.98690022498951,9.8528423523018
4.3,4988.854116242712,-5.184757791730728,23.986591094388846,9.901638038935928
4.4,4988.3296044668705,-5.305477635993312,23.986280432835045,10.017819881190421
4.5,4987.79304495194,-5.425712571399033,23.985966126103396,9.979880537248757
4.6000000000000005,4987.24445406211,-5.546105134680517,23.985653009709697,9.899111246289566
4.7,4986.683807105963,-5.666833899192404,23.985342427433416,10.053918281465094
4.800000000000001,4986.111119571541,-5.786916697369273,23.985026988122986,9.97306400066419
4.9,4985.526406929561,-5.9073360518307485,23.98471408559651,9.92569627498373
5.0,4984.929642504606,-6.027952357709983,23.98440266922124,9.916896634416435
5.1000000000000005,4984.320814641464,-6.148604815743835,23.98409152893261,9.952659750577324
5.2,4983.699929014993,-6.26910762362061,23.983779266584662,9.935251417220101
5.300000000000001,4983.066989505529,-6.389682475934886,23.98346755041906,10.02007055990641
5.4,4982.422010220743,-6.509903128509886,23.9831531730729,10.044610469069598
5.5,4981.7650140142,-6.630020910637771,23.982838025792887,9.9004019879864
5.6000000000000005,4981.095975991767,-6.750739448901309,23.98252740301989,9.961675459151946
5.7,4980.414878916959,-6.871201957028122,23.982214857806216,9.961123391876942
5.800000000000001,4979.721735503305,-6.991666225835436,23.98190232991352,9.829642728030871
5.9,4979.0165182771225,-7.112678209968226,23.981593927195586,9.999825244939004
6.0,4978.299235361092,-7.232980019731831,23.981280185041395,9.922073922586142
6.1000000000000005,4977.569906080384,-7.353605504917937,23.980968882316574,9.882059310061543
6.2,4976.828505934946,-7.474397315035662,23.980658835040764,9.946919552495867
6.300000000000001,4976.075040158702,-7.5949181198823394,23.980346752790172,10.001944127874458
6.4,4975.309533801912,-7.715208924954285,23.98003294415653,9.977964800979194
6.5,4974.531993392009,-7.835599182568548,23.979719887868605,9.915178993772516
6.6000000000000005,4973.742400891953,-7.9562507291463085,23.979408801470544,9.978486760555915
6.7,4972.940756464619,-8.076637726996093,23.97909572880626,9.949954549734668
6.800000000000001,4972.12706741522,-8.197143170943045,23.97878355133335,9.87430366194109
6.9,4971.301312073754,-8.317963569696994,23.978473747389167,10.013601531249641
7.0,4970.463503765709,-8.438202500005165,23.97815957300725,9.959066732259478
7.1000000000000005,4969.613660220128,-8.558668321405579,23.977847109641765,9.867887661573109
7.2,4968.751751106115,-8.679513870281497,23.97753750699808,9.903516654898672
7.300000000000001,4967.877764893509,-8.800210292624753,23.977226786503145,9.877563880401489
7.4,4966.991703653422,-8.921014420379898,23.97691688027038,10.045832655569015
7.5,4966.093597117231,-9.041116211638364,23.976601694644554,9.900950870681086
7.6000000000000005,4965.18345021603,-9.161821723222063,23.976291054650495,9.907418940780238
7.7,4964.26123413928,-9.282499722493949,23.975980211722263,9.922565695226156
7.800000000000001,4963.3269534481515,-9.403114010509038,23.97566889356819,9.802850814005415
7.9,4962.380586388966,-9.5242270857938,23.97536133144023,9.934219400057009
8.0,4961.422135445294,-9.644791697869687,23.975049647653922,10.02896413339242
8.1,4960.451647826548,-9.764960585554766,23.974734991273994,9.936250005244185
8.200000000000001,4959.469124010517,-9.885515645242464,23.974423243777927,9.897613088297714
8.3,4958.474536657449,-10.006231326996394,23.974112708506002,9.793264269832719
8.4,4957.467855999945,-10.127381735828854,23.973805447153598,9.929795163833935
8.5,4956.449088802995,-10.247962113457099,23.973493902176656,9.9512405712423
8.6,4955.418268067968,-10.36845249699402,23.973181684355126,9.923682599595068
8.700000000000001,4954.3753925739,-10.489057294750785,23.972870331158443,9.92262311995839
8.8,4953.3204564059615,-10.609665974425988,23.972559011202684,9.747336050306494
8.9,4952.253422836678,-10.731005324805073,23.972253190837314,9.986073629627096
9.0,4951.174305153284,-10.851348252320877,23.971939880136805,9.974026690015874
9.1,4950.083150691623,-10.971740890373715,23.97162694740618,9.83728776745393
9.200000000000001,4948.979928472075,-11.092703412530687,23.97131830482694,9.883268705595357
9.3,4947.864619617636,-11.213473587354406,23.97100821960663,9.856995278578093
9.4,4946.737228292084,-11.334352835262486,23.970698958708887,9.933893352130672
9.5,4945.597765108421,-11.454910748190281,23.970387285152256,10.049757395879228
9.600000000000001,4944.446270328782,-11.574984752691584,23.97007197638863,9.943832302360475
9.700000000000001,4943.282746080794,-11.695500117078906,23.969759990999783,9.83505183768217
9.8,4942.107147631981,-11.816468771136265,23.969451418572312,9.861863774330606
9.9,4940.9194579371615,-11.937325036745287,23.969142004926663,9.966803699673923
10.0,4939.719704533156,-12.057742952945103,23.968829298815653,9.935014917876499
10.100000000000001,4938.507902733322,-12.178292953882599,23.96851759007016,9.942419980245882
10.200000000000001,4937.284047505109,-12.298811520407044,23.968205648992587,9.88539434069153
10.3,4936.048128551032,-12.419567472165799,23.967895497080978,9.834599893662785
10.4,4934.800123432024,-12.540534819967307,23.967586938833144,9.936008245004727
10.5,4933.540042760141,-12.661078527815718,23.96727519892225,10.003847177766286
10.600000000000001,4932.267921896966,-12.78133864458319,23.966961330580865,9.992598675376135
10.700000000000001,4930.983772702756,-12.901645148710026,23.966647815158588,9.90461531165412
10.8,4929.687574529869,-13.022318219717185,23.96633706019356,9.832538265134222
10.9,4928.379294039402,-13.14329150160433,23.966028566628832,9.926105616726547
11.0,4927.058935768149,-13.263873833747388,23.965717137410557,9.821573520251194
11.100000000000001,4925.726497481733,-13.38489180676677,23.965408987862112,9.973909070592416
11.200000000000001,4924.381989207017,-13.5052735969815,23.965096058821768,10.028281035926451
11.3,4923.025454124541,-13.625427960970054,23.96478142387386,9.846713835644323
11.4,4921.656865750718,-13.74633942721408,23.96447248555396,10.038060513346228
11.5,4920.276226180091,-13.866451893573549,23.964157543777258,9.898256367644898
11.600000000000001,4918.8835462206725,-13.987147205575726,23.963846988322594,9.835837934971408
11.700000000000001,4917.478783733248,-14.10810245482534,23.963538391231506,9.943147484169371
11.8,4916.061948137692,-14.228609366268447,23.963226427328667,10.090924345000882
11.9,4914.633092712361,-14.348499047624747,23.962909826961738,9.895094224085197
12.0,4913.192207485266,-14.469205405095426,23.962599370718582,9.982331910565806
12.100000000000001,4911.739269852217,-14.589547165137054,23.962286177413624,9.94490302118544
12.200000000000001,4910.274290260362,-14.710044581887427,23.96197415843123,10.029606453190267
12.3,4908.79727862856,-14.830187962547553,23.961659481898668,9.896873353219021
12.4,4907.308224988959,-14.950884740262062,23.961348969835754,9.96170332669169
12.5,4905.807115226497,-15.071310418595816,23.961036423747743,9.897207064064478
12.600000000000001,4904.293949464629,-15.192004729555881,23.96072590121473,9.908734663930732
12.700000000000001,4902.76871670397,-15.312650394186532,23.960415017005996,9.962716336756719
12.8,4901.231430668537,-15.43307022408083,23.96010243913503,9.944062374302893
12.9,4899.6820987844885,-15.553567366809549,23.95979044652773,10.014132189001439
13.0,4898.120731835693,-15.673771517756116,23.95947625549655,9.924727922488508
13.100000000000001,4896.547325841653,-15.794348273316697,23.95916486950311,9.906653420043641
13.200000000000001,4894.961858427004,-15.914999930278134,23.95885405059291,9.922361094724106
13.3,4893.364329151559,-16.035585488928316,23.95854273885813,9.966879857221796
13.4,4891.754750638028,-16.15598469120612,23.958230030357697,9.957825082752663
13.5,4890.133130341701,-16.2764211449942,23.957917605948673,9.835020979019703
13.600000000000001,4888.499440797747,-16.39736964595524,23.957609034489384,9.946530307631273
13.700000000000001,4886.853679702551,-16.517852167832704,23.95729696445126,9.900935637966791
13.8,4885.195860866304,-16.63852446778841,23.956986324935123,9.886528507499222
13.9,4883.525971819956,-16.759256370132963,23.9566761374393,9.943352431015473
14.0,4881.8440214699185,-16.87975054053854,23.9563641671063,10.014045243802268
14.100000000000001,4880.15003648449,-16.9999490766697,23.95604997880301,9.9177703373987
14.200000000000001,4878.444011578615,-17.120548951197332,23.955738811102155,9.986786138108718
14.3,4876.725941117158,-17.240860187058853,23.955425478046863,9.937755738200067
14.4,4874.995829325617,-17.361375553772337,23.95511368330878,9.980628494960987
14.5,4873.253674973041,-17.48171140698274,23.954800543448087,9.89129674183611
14.600000000000001,4871.499468416316,-17.602419638362615,23.954490206350037,9.85258184221961
14.700000000000001,4869.733182982203,-17.72328895543192,23.954181083922816,0.0
14.8,4867.95275408666,-17.885288955431918,23.954181083922816,0.0
14.9,4866.156125191117,-18.047288955431917,23.954181083922816,0.0
15.0,4864.343296295574,-18.209288955431916,23.954181083922816,0.0
15.100000000000001,4862.514267400031,-18.371288955431915,23.954181083922816,0.0
15.200000000000001,4860.669038504488,-18.533288955431914,23.954181083922816,0.0
15.3,4858.807609608944,-18.695288955431913,23.954181083922816,0.0
15.4,4856.929980713401,-18.857288955431912,23.954181083922816,0.0
15.5,4855.036151817858,-19.01928895543191,23.954181083922816,0.0
15.600000000000001,4853.126122922315,-19.18128895543191,23.954181083922816,0.0
15.700000000000001,4851.199894026771,-19.34328895543191,23.954181083922816,0.0
15.8,4849.257465131228,-19.505288955431908,23.954181083922816,0.0
15.9,4847.298836235685,-19.667288955431907,23.954181083922816,0.0
16.0,4845.324007340141,-19.829288955431906,23.954181083922816,0.0
16.1,4843.332978444598,-19.991288955431905,23.954181083922816,0.0
16.2,4841.325749549054,-20.153288955431904,23.954181083922816,0.0
16.3,4839.302320653511,-20.315288955431903,23.954181083922816,0.0
16.400000000000002,4837.262691757967,-20.477288955431902,23.954181083922816,0.0
16.5,4835.206862862424,-20.6392889554319,23.954181083922816,0.0
16.6,4833.13483396688,-20.8012889554319,23.954181083922816,0.0
16.7,4831.046605071337,-20.9632889554319,23.954181083922816,0.0
16.8,4828.942176175793,-21.1252889554319,23.954181083922816,0.0
16.900000000000002,4826.821547280249,-21.287288955431897,23.954181083922816,0.0
17.0,4824.684718384707,-21.449288955431896,23.954181083922816,0.0
17.1,4822.531689489164,-21.611288955431895,23.954181083922816,0.0
17.2,4820.362460593621,-21.773288955431894,23.954181083922816,0.0
17.3,4818.177031698078,-21.935288955431893,23.954181083922816,0.0
17.400000000000002,4815.975402802535,-22.097288955431893,23.954181083922816,0.0
17.5,4813.757573906993,-22.25928895543189,23.954181083922816,0.0
17.6,4811.52354501145,-22.42128895543189,23.954181083922816,0.0
17.7,4809.273316115907,-22.58328895543189,23.954181083922816,0.0
17.8,4807.006887220364,-22.74528895543189,23.954181083922816,0.0
17.900000000000002,4804.724258324821,-22.907288955431888,23.954181083922816,0.0
18.0,4802.425429429278,-23.069288955431887,23.954181083922816,0.0
18.1,4800.110400533735,-23.231288955431886,23.954181083922816,0.0
18.2,4797.779171638192,-23.393288955431885,23.954181083922816,0.0
18.3,4795.431742742649,-23.555288955431884,23.954181083922816,0.0
18.400000000000002,4793.068113847105,-23.717288955431883,23.954181083922816,0.0
18.5,4790.688284951562,-23.879288955431882,23.954181083922816,0.0
18.6,4788.292256056019,-24.04128895543188,23.954181083922816,0.0
18.7,4785.880027160476,-24.20328895543188,23.954181083922816,0.0
18.8,4783.451598264933,-24.36528895543188,23.954181083922816,0.0
18.900000000000002,4781.0069693693895,-24.527288955431878,23.954181083922816,0.0
19.0,4778.546140473846,-24.689288955431877,23.954181083922816,0.0
19.1,4776.069111578303,-24.851288955431876,23.954181083922816,0.0
19.200000000000003,4773.57588268276,-25.013288955431875,23.954181083922816,0.0
19.3,4771.066453787216,-25.175288955431874,23.954181083922816,0.0
19.400000000000002,4768.540824891673,-25.337288955431873,23.954181083922816,0.0
19.5,4765.998995996129,-25.499288955431872,23.954181083922816,0.0
19.6,4763.440967100586,-25.66128895543187,23.954181083922816,0.0
19.700000000000003,4760.866738205043,-25.82328895543187,23.954181083922816,0.0
19.8,4758.276309309499,-25.98528895543187,23.954181083922816,0.0
19.900000000000002,4755.669680413956,-26.14728895543187,23.954181083922816,0.0
20.0,4753.046851518412,-26.309288955431867,23.954181083922816,0.0
20.1,4750.4078226228685,-26.471288955431866,23.954181083922816,0.0
20.200000000000003,4747.752593727325,-26.633288955431865,23.954181083922816,0.0
20.3,4745.081164831781,-26.795288955431865,23.954181083922816,0.0
20.400000000000002,4742.393535936238,-26.957288955431864,23.954181083922816,0.0
20.5,4739.689707040695,-27.119288955431863,23.954181083922816,0.0
20.6,4736.969678145152,-27.28128895543186,23.954181083922816,0.0
20.700000000000003,4734.233449249609,-27.44328895543186,23.954181083922816,0.0
20.8,4731.4810203540665,-27.60528895543186,23.954181083922816,0.0
20.900000000000002,4728.712391458524,-27.76728895543186,23.954181083922816,0.0
21.0,4725.927562562981,-27.929288955431858,23.954181083922816,0.0
21.1,4723.126533667438,-28.091288955431857,23.954181083922816,0.0
21.200000000000003,4720.309304771895,-28.253288955431856,23.954181083922816,0.0
21.3,4717.475875876352,-28.415288955431855,23.954181083922816,0.0
21.400000000000002,4714.626246980809,-28.577288955431854,23.954181083922816,0.0
21.5,4711.760418085266,-28.739288955431853,23.954181083922816,0.0
21.6,4708.878389189723,-28.901288955431852,23.954181083922816,0.0
21.700000000000003,4705.98016029418,-29.06328895543185,23.954181083922816,0.0
21.8,4703.065731398637,-29.22528895543185,23.954181083922816,0.0
21.900000000000002,4700.135102503094,-29.38728895543185,23.954181083922816,0.0
22.0,4697.18827360755,-29.549288955431848,23.954181083922816,0.0
22.1,4694.225244712007,-29.711288955431847,23.954181083922816,0.0
22.200000000000003,4691.246015816464,-29.873288955431846,23.954181083922816,0.0
22.3,4688.250586920921,-30.035288955431845,23.954181083922816,0.0
22.400000000000002,4685.2389580253775,-30.197288955431844,23.954181083922816,0.0
22.5,4682.211129129834,-30.359288955431843,23.954181083922816,0.0
22.6,4679.167100234291,-30.521288955431842,23.954181083922816,0.0
22.700000000000003,4676.106871338748,-30.68328895543184,23.954181083922816,0.0
22.8,4673.030442443204,-30.84528895543184,23.954181083922816,0.0
22.900000000000002,4669.937813547661,-31.00728895543184,23.954181083922816,0.0
23.0,4666.8289846521175,-31.16928895543184,23.954181083922816,0.0
23.1,4663.703955756574,-31.331288955431837,23.954181083922816,0.0
23.200000000000003,4660.562726861031,-31.493288955431836,23.954181083922816,0.0
23.3,4657.405297965487,-31.655288955431836,23.954181083922816,0.0
23.400000000000002,4654.231669069944,-31.817288955431835,23.954181083922816,0.0
23.5,4651.0418401744,-31.979288955431834,23.954181083922816,0.0
23.6,4647.835811278856,-32.14128895543183,23.954181083922816,0.0
23.700000000000003,4644.613582383313,-32.30328895543183,23.954181083922816,0.0
23.8,4641.375153487769,-32.46528895543183,23.954181083922816,0.0
23.900000000000002,4638.1205245922265,-32.62728895543183,23.954181083922816,0.0
24.0,4634.849695696684,-32.78928895543183,23.954181083922816,0.0
24.1,4631.562666801141,-32.95128895543183,23.954181083922816,0.0
24.200000000000003,4628.259437905598,-33.11328895543183,23.954181083922816,0.0
24.3,4624.940009010055,-33.275288955431826,23.954181083922816,0.0
24.400000000000002,4621.604380114512,-33.437288955431825,23.954181083922816,0.0
24.5,4618.2525512189695,-33.599288955431824,23.954181083922816,0.0
24.6,4614.884522323427,-33.76128895543182,23.954181083922816,0.0
24.700000000000003,4611.500293427884,-33.92328895543182,23.954181083922816,0.0
24.8,4608.099864532341,-34.08528895543182,23.954181083922816,0.0
24.900000000000002,4604.683235636798,-34.24728895543182,23.954181083922816,0.0
25.0,4601.250406741255,-34.40928895543182,23.954181083922816,0.0
25.1,4597.801377845712,-34.57128895543182,23.954181083922816,0.0
25.200000000000003,4594.3361489501685,-34.73328895543182,23.954181083922816,0.0
25.3,4590.854720054625,-34.895288955431816,23.954181083922816,0.0
25.400000000000002,4587.357091159082,-35.057288955431815,23.954181083922816,0.0
25.5,4583.843262263539,-35.219288955431814,23.954181083922816,0.0
