Time[s],Pos[m],V[m/s],mass[kg],T[N]
0.0,5000.0,0.0,24.0,9.745078689208844
0.1,4999.993930233349,-0.1213952468176503,23.999694250458802,9.859020837457795
0.2,4999.975744706333,-0.2423152052554044,23.999384926009625,9.816378863430803
0.30000000000000004,4999.9454583258985,-0.36341231594581547,23.999076939442308,9.988047346028797
0.4,4999.9030980265925,-0.4837935795992575,23.998763566816912,9.898272480636267
0.5,4999.848680923871,-0.6045483858711751,23.998453010856707,10.037711673225495
0.6000000000000001,4999.782217419166,-0.7247216167393292,23.998138080024784,9.924963178491824
0.7000000000000001,4999.703713127523,-0.8453641266799888,23.99782668665024,9.966834239761107
0.8,4999.613153335722,-0.9658316191425869,23.99751397958104,9.888747371432409
0.9,4999.510530551811,-1.0866239702802296,23.997203722468885,9.896580457143676
1.0,4999.395830191522,-1.2073831465629783,23.996893219595517,9.834545972689737
1.1,4999.269041014651,-1.3284003030321343,23.99658466303944,9.834946282644921
1.2000000000000002,4999.130150231892,-1.4494152643090426,23.996276093923733,9.86204390196945
1.3,4998.979163625619,-1.570316772831296,23.995966674626622,9.841507839792857
1.4000000000000001,4998.816082615888,-1.6913033338105006,23.99565789964361,9.945029552649022
1.5,4998.640924547561,-1.8118579429237478,23.99534587669132,9.902688878846801
1.6,4998.453702222508,-1.9325884690813135,23.995035182167666,9.971544300478499
1.7000000000000002,4998.254421219529,-2.0530315001858233,23.994722327321426,9.949192858477959
1.8,4998.043091282917,-2.173567142152692,23.9944101737464,9.949679600619513
1.9000000000000001,4997.819707910508,-2.294100216097311,23.99409800489995,9.940679078410597
2.0,4997.584269382094,-2.4146702624323395,23.99378611844276,9.960221901422955
2.1,4997.336777948484,-2.5351583196538,23.993473618834116,9.950850608014564
2.2,4997.077235783285,-2.655684894390694,23.993161413247588,9.839068645227558
2.3000000000000003,4996.805617692848,-2.776676826418598,23.992852714793727,9.96954951161886
2.4000000000000004,4996.521927627435,-2.8971243915469707,23.992539922533517,9.959763562238267
2.5,4996.226190793204,-3.0176122029489076,23.992227437305157,9.929404172371019
2.6,4995.9183988778905,-3.1382260137581963,23.99191590459548,9.882423053242997
2.7,4995.59853581725,-3.259035110327783,23.991605845907316,9.857607079647055
2.8000000000000003,4995.266586701722,-3.379947111960367,23.99129656581446,9.95838474085977
2.9000000000000004,4994.922567415659,-3.5004385192137684,23.990984123846292,10.03731547249209
3.0,4994.566515466125,-3.620600379941028,23.990669205445073,9.957075210216209
3.1,4994.1984306346085,-3.7410961603010393,23.99035680456312,9.96841713565086
3.2,4993.818298615951,-3.861544122557717,23.99004404783094,9.90202835132955
3.3000000000000003,4993.426107991298,-3.9822682814282166,23.98973337403118,9.978896456564744
3.4000000000000004,4993.021860998664,-4.102671480755609,23.98942028851278,9.904773092823117
3.5,4992.60555826393,-4.22338312477339,23.989109528597403,10.05740646581634
3.6,4992.17721620487,-4.343457964520436,23.988793979846015,9.797497646621434
3.7,4991.7368125159755,-4.464615726147313,23.988486585672415,9.938471490414427
3.8000000000000003,4991.284322460986,-4.5851852838862674,23.988174768477776,10.048089308435781
3.9000000000000004,4990.819798325652,-4.7052973310395325,23.98785951205,9.86886688709272
4.0,4990.343225655903,-4.826155975446907,23.987549878683346,9.92377529785845
4.1000000000000005,4989.854578593553,-4.946785182041857,23.987238522578277,9.950520302280921
4.2,4989.353874212283,-5.067302353383777,23.986926327355015,9.868048349339785
4.3,4988.841100949704,-5.188162809699026,23.986616719669787,9.97850534422182
4.4,4988.316264692957,-5.308562234757099,23.986303646422446,9.964789222653224
4.5,4987.779385661671,-5.429018300719718,23.985991003515178,9.92101571298343
4.6000000000000005,4987.230451925977,-5.549656323700368,23.985679733991432,9.906546543333894
4.7,4986.669451398587,-5.6703541348937385,23.985368918434464,10.053352181031201
4.800000000000001,4986.096411720269,-5.790439339588682,23.985053496885303,9.981900432495356
4.9,4985.511348653856,-5.910821898115655,23.98474031711787,9.836722404809306
5.0,4984.914217093833,-6.031809214373611,23.984431692276747,10.020557600610076
5.1000000000000005,4984.305025152763,-6.152029515753,23.984117299649796,9.958856806511664
5.2,4983.683798345982,-6.2725065297163605,23.983804842870683,9.886588393050657
5.300000000000001,4983.050508798636,-6.393284328354213,23.983494653495963,9.892785683568452
5.4,4982.405142790085,-6.514035753694498,23.98318426968272,9.896868226453604
5.5,4981.747702516825,-6.634769622460927,23.98287375778066,9.853697402074392
5.6000000000000005,4981.07817988298,-6.755682966153782,23.98256460035301,10.063084445899225
5.7,4980.396609595642,-6.875722688536777,23.98224887345634,9.885143302046362
5.800000000000001,4979.702998264853,-6.9965038384062215,23.98193872942101,9.919461503929968
5.9,4978.997316000801,-7.1171413531613545,23.981627508660207,9.899283393180712
6.0,4978.279565805084,-7.237862472095825,23.98131692098286,9.865924561741068
6.1000000000000005,4977.549736568972,-7.3587221616305545,23.981007379930965,9.904747026378597
6.2,4976.807829484947,-7.479419429657732,23.980696620833417,9.88480445901526
6.300000000000001,4976.0538485428,-7.600199324445178,23.980386487429207,9.918775693831652
6.4,4975.287796721018,-7.72083702172017,23.98007528818553,9.964372971818284
6.5,4974.509690663756,-7.84128403322563,23.979762658338036,10.01729561001489
6.6000000000000005,4973.719550967382,-7.961509803017191,23.97944836805527,9.975058910345217
6.7,4972.917379914474,-8.081911164666574,23.979135402938976,10.169032811765097
6.800000000000001,4972.103209199294,-8.201503044887433,23.97881635193736,10.055445423233913
6.9,4971.2770556391515,-8.321568066006305,23.97850086471322,9.937484631049346
7.0,4970.438871007071,-8.44212448579691,23.97818907848106,9.908946260071339
7.1000000000000005,4969.588624809002,-8.56279938628354,23.977878187633547,9.943591783906038
7.2,4968.726318372213,-8.68332925954823,23.97756620979091,9.807150297483147
7.300000000000001,4967.851930522928,-8.80442763868169,23.97725851276767,9.797428442579532
7.4,4966.965430834649,-8.925566039595454,23.976951120765328,9.918474369333312
7.5,4966.066842574832,-9.046199067271022,23.976639930975637,9.876567131498378
7.6000000000000005,4965.156182299836,-9.167006343924314,23.97633005601563,10.004979706710625
7.7,4964.233468103056,-9.287277500612152,23.97601615214142,9.919997828501643
7.800000000000001,4963.298709095502,-9.407902560952142,23.975704914553557,9.774344319775441
7.9,4962.351857233279,-9.529134596607229,23.975398246810116,9.919791351412176
8.0,4961.392912526381,-9.649759451820916,23.975087015700424,9.833319272789556
8.1,4960.4218873269265,-9.770744449306713,23.974778497631767,9.866055567983187
8.200000000000001,4959.438770481408,-9.89159237250556,23.974468952469586,9.915040499428809
8.3,4958.443579086286,-10.012235440486663,23.974157870416754,9.891292569342397
8.4,4957.436318458337,-10.13297702948013,23.973847533449614,9.954761074238696
8.5,4956.416996935337,-10.253453340361807,23.973535205173132,9.97944401436603
8.6,4955.385632956298,-10.373826149807604,23.973222102475237,9.87595274072927
8.700000000000001,4954.342210138546,-10.494630116488526,23.972912246791598,9.976145793122273
8.8,4953.286727848068,-10.615015602502432,23.972599247574614,9.880900509131875
8.9,4952.219187170536,-10.735797859290788,23.97228923665591,9.820554624059781
9.0,4951.139555707277,-10.856831318132357,23.971981119075092,9.818835488491633
9.1,4950.047820565887,-10.97787142194719,23.971673055431744,9.856088961816907
9.200000000000001,4948.943989210813,-11.098755591145935,23.971363822969472,9.94267962415886
9.3,4947.8280875267665,-11.219277999832235,23.971051873745633,9.962556934826308
9.4,4946.700137774983,-11.33971694551668,23.970739300875866,9.886149540648432
9.5,4945.560128217952,-11.460474106156115,23.970429125270037,9.923331590500208
9.600000000000001,4944.408050727425,-11.581075614772153,23.97011778308618,9.843349452117414
9.700000000000001,4943.2438964290595,-11.702010264351442,23.969808950323017,9.943251569269226
9.8,4942.067669531527,-11.822527596316124,23.969496983154535,9.876970860463041
9.9,4940.87937710162,-11.943320913027158,23.96918709552763,9.851446205651568
10.0,4939.6790000421615,-12.064220187812811,23.968878008730737,9.873067483462453
10.100000000000001,4938.466537592045,-12.18502872579109,23.96856824357136,9.90149753732121
10.200000000000001,4937.242000245495,-12.305718115979024,23.968257586425764,10.057391526791653
10.3,4936.005426507907,-12.425756543698762,23.967942038143086,9.946890831703838
10.4,4934.756825903199,-12.546255460399308,23.967629956793605,9.922887950414443
10.5,4933.496170426442,-12.666853985094118,23.96731862852885,9.875707875499618
10.600000000000001,4932.223445281436,-12.787648826246844,23.9670087805278,9.997215580547383
10.700000000000001,4930.938666028121,-12.9079361490818,23.966695120251213,10.049648696745923
10.8,4929.641869008658,-13.02800414822232,23.966379814897998,9.859778302666461
10.9,4928.333025604699,-13.148863842459184,23.96607046668353,10.050125157114895
11.0,4927.01213596995,-13.26892876058523,23.965755146381483,10.000457453040687
11.100000000000001,4925.67922950866,-13.389200374160481,23.965441384391912,9.830063867640634
11.200000000000001,4924.334260363167,-13.51018244770957,23.96513296846082,9.967665882894439
11.3,4922.977221745756,-13.63058981005077,23.96482023529902,9.97279591837525
11.4,4921.608143489585,-13.750975222812496,23.964507341183563,10.07391205750997
11.5,4920.227047816552,-13.870938145451317,23.964191274573135,9.855150108704043
11.600000000000001,4918.833910235072,-13.99181339571366,23.96388207156716,9.926144301414158
11.700000000000001,4917.428699967973,-14.112391856534202,23.963570641135163,9.904748047080822
11.8,4916.011427417341,-14.23305906678322,23.96325988200559,10.022528332876337
11.9,4914.582112747878,-14.353234231003775,23.962945427547382,9.964236091810042
12.0,4913.140768426334,-14.47365210947265,23.962632801994463,9.779894892995218
12.100000000000001,4911.687343879432,-14.594838741466734,23.962325960103097,9.867051464895015
12.200000000000001,4910.221818881784,-14.715661122818373,23.962016383694884,9.838194087480986
12.3,4908.744205651066,-14.836603403398103,23.961707712680067,9.982970756947582
12.4,4907.254528429003,-14.956940947103329,23.961394499331455,9.91310742683631
12.5,4905.752802901361,-15.077569516219977,23.961083477928316,9.82401740049943
12.600000000000001,4904.238995952932,-15.198569364468517,23.960775251703705,10.005115653702697
12.700000000000001,4902.713126836942,-15.318812864158032,23.96046134356419,9.988458902575852
12.8,4901.175229922423,-15.439125335354483,23.960147958026308,9.937306455206548
12.9,4899.625291113469,-15.559650753780055,23.959836177384375,9.882037413442502
13.0,4898.063288255872,-15.680406309206578,23.959526130795567,9.91838579651531
13.100000000000001,4896.489217454856,-15.801009621504713,23.95921494378483,9.957955452740306
13.200000000000001,4894.903094607276,-15.921447239754691,23.958902515285477,9.884261831297671
13.3,4893.304912645664,-16.04219190347663,23.958592398906084,9.819707179775317
13.4,4891.694642772136,-16.16320547925707,23.95828430791363,9.851406670100172
13.5,4890.072278182998,-16.284086215079057,23.957975222357156,9.945769553180623
13.600000000000001,4888.437845240391,-16.4045725469501,23.957663176187523,9.860460110735328
13.700000000000001,4886.79134588727,-16.52541442687923,23.957353806581487,9.933232995336617
13.8,4885.132777560868,-16.64595201126743,23.957042153743394,9.866051714444385
13.9,4883.4621414816775,-16.766769483848133,23.956732608702115,9.948807455595192
14.0,4881.779440953902,-16.88724098147647,23.95642046721901,9.914412044947973
14.100000000000001,4880.084686124611,-17.007855514787266,23.95610940488379,9.918340250963826
14.200000000000001,4878.377870688741,-17.128453112992283,23.955798219302032,9.968712113443301
14.3,4876.659006033533,-17.248839900615415,23.955485453314992,9.980758497879048
14.4,4874.928105241077,-17.369175857731857,23.955172309375488,9.863280654766202
14.5,4873.1851463595785,-17.490001683587213,23.95486285127555,9.804780202283649
14.600000000000001,4871.430092711426,-17.61107119185772,23.954555228613486,9.886298019681048
14.700000000000001,4869.662949153972,-17.73179986816493,23.954245048349165,0.0
14.8,4867.881669167155,-17.89379986816493,23.954245048349165,0.0
14.9,4866.084189180339,-18.05579986816493,23.954245048349165,0.0
15.0,4864.270509193523,-18.217799868164928,23.954245048349165,0.0
15.100000000000001,4862.440629206707,-18.379799868164927,23.954245048349165,0.0
15.200000000000001,4860.594549219891,-18.541799868164926,23.954245048349165,0.0
15.3,4858.7322692330745,-18.703799868164925,23.954245048349165,0.0
15.4,4856.853789246258,-18.865799868164924,23.954245048349165,0.0
15.5,4854.959109259442,-19.027799868164923,23.954245048349165,0.0
15.600000000000001,4853.048229272626,-19.189799868164922,23.954245048349165,0.0
15.700000000000001,4851.121149285809,-19.35179986816492,23.954245048349165,0.0
15.8,4849.177869298993,-19.51379986816492,23.954245048349165,0.0
15.9,4847.218389312176,-19.67579986816492,23.954245048349165,0.0
16.0,4845.24270932536,-19.837799868164918,23.954245048349165,0.0
16.1,4843.250829338544,-19.999799868164917,23.954245048349165,0.0
16.2,4841.242749351727,-20.161799868164916,23.954245048349165,0.0
16.3,4839.218469364911,-20.323799868164915,23.954245048349165,0.0
16.400000000000002,4837.177989378094,-20.485799868164914,23.954245048349165,0.0
16.5,4835.1213093912775,-20.647799868164913,23.954245048349165,0.0
16.6,4833.048429404461,-20.809799868164912,23.954245048349165,0.0
16.7,4830.959349417644,-20.97179986816491,23.954245048349165,0.0
16.8,4828.854069430828,-21.13379986816491,23.954245048349165,0.0
16.900000000000002,4826.732589444011,-21.29579986816491,23.954245048349165,0.0
17.0,4824.594909457194,-21.45779986816491,23.954245048349165,0.0
17.1,4822.4410294703775,-21.619799868164908,23.954245048349165,0.0
17.2,4820.270949483561,-21.781799868164907,23.954245048349165,0.0
17.3,4818.084669496744,-21.943799868164906,23.954245048349165,0.0
17.400000000000002,4815.882189509927,-22.105799868164905,23.954245048349165,0.0
17.5,4813.66350952311,-22.267799868164904,23.954245048349165,0.0
17.6,4811.428629536294,-22.429799868164903,23.954245048349165,0.0
17.7,4809.177549549477,-22.5917998681649,23.954245048349165,0.0
17.8,4806.91026956266,-22.7537998681649,23.954245048349165,0.0
17.900000000000002,4804.626789575843,-22.9157998681649,23.954245048349165,0.0
18.0,4802.327109589027,-23.0777998681649,23.954245048349165,0.0
18.1,4800.011229602211,-23.239799868164898,23.954245048349165,0.0
18.2,4797.679149615395,-23.401799868164897,23.954245048349165,0.0
18.3,4795.3308696285785,-23.563799868164896,23.954245048349165,0.0
18.400000000000002,4792.966389641762,-23.725799868164895,23.954245048349165,0.0
18.5,4790.585709654946,-23.887799868164894,23.954245048349165,0.0
18.6,4788.18882966813,-24.049799868164893,23.954245048349165,0.0
18.7,4785.775749681314,-24.211799868164892,23.954245048349165,0.0
18.8,4783.3464696944975,-24.37379986816489,23.954245048349165,0.0
18.900000000000002,4780.900989707681,-24.53579986816489,23.954245048349165,0.0
19.0,4778.439309720865,-24.69779986816489,23.954245048349165,0.0
19.1,4775.961429734049,-24.859799868164888,23.954245048349165,0.0
19.200000000000003,4773.467349747232,-25.021799868164887,23.954245048349165,0.0
19.3,4770.957069760416,-25.183799868164886,23.954245048349165,0.0
19.400000000000002,4768.430589773599,-25.345799868164885,23.954245048349165,0.0
19.5,4765.887909786783,-25.507799868164884,23.954245048349165,0.0
19.6,4763.3290297999665,-25.669799868164883,23.954245048349165,0.0
19.700000000000003,4760.75394981315,-25.831799868164882,23.954245048349165,0.0
19.8,4758.1626698263335,-25.99379986816488,23.954245048349165,0.0
19.900000000000002,4755.555189839517,-26.15579986816488,23.954245048349165,0.0
20.0,4752.9315098527,-26.31779986816488,23.954245048349165,0.0
20.1,4750.291629865884,-26.47979986816488,23.954245048349165,0.0
20.200000000000003,4747.635549879067,-26.641799868164878,23.954245048349165,0.0
20.3,4744.9632698922505,-26.803799868164877,23.954245048349165,0.0
20.400000000000002,4742.274789905434,-26.965799868164876,23.954245048349165,0.0
20.5,4739.570109918617,-27.127799868164875,23.954245048349165,0.0
20.6,4736.8492299318,-27.289799868164874,23.954245048349165,0.0
20.700000000000003,4734.112149944984,-27.451799868164873,23.954245048349165,0.0
20.8,4731.358869958167,-27.61379986816487,23.954245048349165,0.0
20.900000000000002,4728.58938997135,-27.77579986816487,23.954245048349165,0.0
21.0,4725.803709984533,-27.93779986816487,23.954245048349165,0.0
21.1,4723.001829997716,-28.09979986816487,23.954245048349165,0.0
21.200000000000003,4720.1837500108995,-28.261799868164868,23.954245048349165,0.0
21.3,4717.349470024083,-28.423799868164867,23.954245048349165,0.0
21.400000000000002,4714.498990037266,-28.585799868164866,23.954245048349165,0.0
21.5,4711.63231005045,-28.747799868164865,23.954245048349165,0.0
21.6,4708.749430063634,-28.909799868164864,23.954245048349165,0.0
21.700000000000003,4705.850350076817,-29.071799868164863,23.954245048349165,0.0
21.8,4702.935070090001,-29.233799868164862,23.954245048349165,0.0
21.900000000000002,4700.003590103185,-29.39579986816486,23.954245048349165,0.0
22.0,4697.055910116369,-29.55779986816486,23.954245048349165,0.0
22.1,4694.092030129553,-29.71979986816486,23.954245048349165,0.0
22.200000000000003,4691.1119501427365,-29.88179986816486,23.954245048349165,0.0
22.3,4688.11567015592,-30.043799868164857,23.954245048349165,0.0
22.400000000000002,4685.103190169104,-30.205799868164856,23.954245048349165,0.0
22.5,4682.074510182288,-30.367799868164855,23.954245048349165,0.0
22.6,4679.029630195471,-30.529799868164854,23.954245048349165,0.0
22.700000000000003,4675.968550208655,-30.691799868164853,23.954245048349165,0.0
22.8,4672.891270221839,-30.853799868164852,23.954245048349165,0.0
22.900000000000002,4669.797790235022,-31.01579986816485,23.954245048349165,0.0
23.0,4666.688110248206,-31.17779986816485,23.954245048349165,0.0
23.1,4663.562230261389,-31.33979986816485,23.954245048349165,0.0
23.200000000000003,4660.420150274573,-31.50179986816485,23.954245048349165,0.0
23.3,4657.261870287756,-31.663799868164848,23.954245048349165,0.0
23.400000000000002,4654.08739030094,-31.825799868164847,23.954245048349165,0.0
23.5,4650.896710314123,-31.987799868164846,23.954245048349165,0.0
23.6,4647.6898303273065,-32.14979986816485,23.954245048349165,0.0
23.700000000000003,4644.46675034049,-32.31179986816485,23.954245048349165,0.0
23.8,4641.227470353673,-32.473799868164846,23.954245048349165,0.0
23.900000000000002,4637.9719903668565,-32.635799868164845,23.954245048349165,0.0
24.0,4634.70031038004,-32.797799868164844,23.954245048349165,0.0
24.1,4631.412430393223,-32.95979986816484,23.954245048349165,0.0
24.200000000000003,4628.108350406406,-33.12179986816484,23.954245048349165,0.0
24.3,4624.7880704195895,-33.28379986816484,23.954245048349165,0.0
24.400000000000002,4621.451590432773,-33.44579986816484,23.954245048349165,0.0
24.5,4618.098910445956,-33.60779986816484,23.954245048349165,0.0
24.6,4614.730030459139,-33.76979986816484,23.954245048349165,0.0
24.700000000000003,4611.344950472322,-33.93179986816484,23.954245048349165,0.0
24.8,4607.943670485505,-34.09379986816484,23.954245048349165,0.0
24.900000000000002,4604.526190498689,-34.255799868164836,23.954245048349165,0.0
25.0,4601.092510511873,-34.417799868164835,23.954245048349165,0.0
25.1,4597.642630525057,-34.579799868164834,23.954245048349165,0.0
25.200000000000003,4594.176550538241,-34.74179986816483,23.954245048349165,0.0
25.3,4590.694270551425,-34.90379986816483,23.954245048349165,0.0
25.400000000000002,4587.195790564609,-35.06579986816483,23.954245048349165,0.0
25.5,4583.681110577792,-35.22779986816483,23.954245048349165,0.0
