Time[s],Pos[m],V[m/s],mass[kg],T[N]
0.0,5000.0,0.0,24.0,10.07705257595618
0.1,4999.993999395172,-0.12001200436747822,23.999683834856548,9.947811486615393
0.2,4999.9759706917475,-0.24056197427499565,23.999371724621735,9.990770104011608
0.30000000000000004,4999.94589596831,-0.3609324038661845,23.999058266570454,9.911012344042005
0.4,4999.903767612103,-0.48163463108286897,23.998747310900043,9.945684814735808
0.5,4999.849576283801,-0.6021918451499516,23.99843526738906,10.016416767416299
0.6000000000000001,4999.783343997948,-0.7224537808155802,23.998121004679774,9.812111962227636
0.7000000000000001,4999.705042978655,-0.8435665176139343,23.997813151985476,9.975449250874265
0.8,4999.6146647439045,-0.9639980870335033,23.99750017462234,9.895057913818986
0.9,4999.512226629235,-1.084764117459861,23.997189719518406,9.889493278339618
1.0,4999.39771077875,-1.2055528034293175,23.9968794390036,9.852210544974056
1.1,4999.2711083179975,-1.3264963234600966,23.99657032822574,9.951984413022942
1.2000000000000002,4999.132432321059,-1.447023525370154,23.996258087066348,10.002415329636117
1.3,4998.981714139083,-1.5673400233016992,23.995944263648862,9.939624964489306
1.4000000000000001,4998.81895125092,-1.6879176502375022,23.995632410264246,9.85839090880345
1.5,4998.644113699992,-1.808833280055769,23.995323105578933,9.87816117150525
1.6,4998.4571887322045,-1.9296659870710513,23.9950131806063,9.939602767930038
1.7000000000000002,4998.258193323405,-2.0502420991823063,23.994701327918097,9.86334331976998
1.8,4998.047124439283,-2.1711354948975807,23.99439186785206,9.911010213686842
1.9000000000000001,4997.823976175107,-2.2918296994027285,23.99408091224849,9.837039592912129
2.0,4997.588743102766,-2.4128316595272614,23.993772277455665,9.980677542040818
2.1,4997.341439793378,-2.533234437732248,23.99345913605613,10.016166234045144
2.2,4997.082103628873,-2.653488761248932,23.99314488120727,9.869393730427925
2.3000000000000003,4996.810711472747,-2.774354272769493,23.99283523131103,9.89772322440137
2.4000000000000004,4996.527238695806,-2.8951011770743165,23.992524692583608,9.962982581451525
2.5,4996.231704855184,-3.015575545191255,23.99221210635928,9.930107066385723
2.6,4995.924116753454,-3.1361863998409603,23.99190055159647,9.865892134876576
2.7,4995.604454210389,-3.2570643730204343,23.99159101156196,9.928529724406069
2.8000000000000003,4995.272716950719,-3.3776807308273225,23.99127950628788,9.908933752813557
2.9000000000000004,4994.928913998121,-3.4983782319209236,23.99096861583278,9.985806937988299
3.0,4994.57305734359,-3.618754768101369,23.99065531349966,9.91320342136367
3.1,4994.205147930865,-3.739433397126978,23.990344289084717,9.893720051496887
3.2,4993.825166621318,-3.860192704868976,23.990033875955902,9.900832093731884
3.3000000000000003,4993.433110889982,-3.980921832780122,23.98972323968844,9.957519146453858
3.4000000000000004,4993.02899408754,-4.101414125979101,23.989410824878096,9.977105448855228
3.5,4992.612832165121,-4.221824231937466,23.98909779555214,9.973425576518022
3.6,4992.184628492247,-4.3422491351631685,23.98878488168131,9.899309731257214
3.7,4991.744366908012,-4.462982460485833,23.98847429317761,9.982209386250114
3.8000000000000003,4991.292049297169,-4.583369665825213,23.988161103716823,10.009765048850241
3.9000000000000004,4990.827698736603,-4.70364145443679,23.987847049703635,10.072655096187269
4.0,4990.351334133338,-4.823650518664831,23.98753102253007,9.858879550611332
4.1000000000000005,4989.862924091201,-4.944550235742053,23.987221702513736,9.913121655339596
4.2,4989.362435410412,-5.065223290728016,23.986910680664185,9.953288790288727
4.3,4988.84988782371,-5.185728353286654,23.986598398580263,9.961858324630372
4.4,4988.325291544095,-5.306197148810207,23.986285847629226,9.947570869266386
4.5,4987.788645433706,-5.426724969038434,23.985973744943728,9.948222714053667
4.6000000000000005,4987.239946704157,-5.547249531988442,23.985661621806752,9.932801410740671
4.7,4986.679192330579,-5.667837849896723,23.985349982509522,9.963073433905343
4.800000000000001,4986.106385462692,-5.78829941763031,23.98503739343472,9.898117055703283
4.9,4985.521518923961,-5.909031267938395,23.984726842350934,9.918491482599594
5.0,4984.924583474327,-6.029677635302991,23.98441565202432,10.030280513947991
5.1000000000000005,4984.315606719501,-6.1498573697467265,23.984100954343262,9.902011015120658
5.2,4983.694585277909,-6.27057137296751,23.98379028108742,9.94449660477364
5.300000000000001,4983.061501319958,-6.391107696154994,23.983478274856243,9.946035443700472
5.4,4982.416364077473,-6.511637063599757,23.98316622034436,9.893233873090669
5.5,4981.75916291708,-6.632386055273912,23.982855822469276,9.915627987878086
5.6000000000000005,4981.089891553031,-6.753041136330402,23.98254472198413,9.933402789251835
5.7,4980.408558413503,-6.873621564519806,23.982233063818793,9.948320933881005
5.800000000000001,4979.715170368345,-6.994139248648136,23.981920937600194,9.909342922504011
5.9,4979.009722455158,-7.114818925803487,23.98161003430749,9.842071071513606
6.0,4978.292192575203,-7.235778585216061,23.981301241653217,9.96774544708779
6.1000000000000005,4977.562592958533,-7.356213657854695,23.980988505995104,10.010181829170849
6.2,4976.8209587097,-7.476471227694114,23.98067443890553,9.98299042960267
6.300000000000001,4976.0672930617275,-7.596841641128409,23.980361224939696,9.94120772762555
6.4,4975.301581687665,-7.7173857502616805,23.98004932189626,9.91652543776371
6.5,4974.523810783183,-7.838032249957826,23.979738193253837,9.824148967134295
6.6000000000000005,4973.733955994034,-7.959063445264292,23.979429962901353,10.002426970920174
6.7,4972.932035285117,-8.07935064208721,23.979116139118627,9.968400345843145
6.800000000000001,4972.118078788698,-8.199779195930523,23.97880338291322,9.958415612164275
6.9,4971.292077381995,-8.320248847928584,23.978490939976474,9.843092324283118
7.0,4970.454004989706,-8.44119890973509,23.978182115280635,9.82195993038926
7.1000000000000005,4969.603833211046,-8.56223657573325,23.97787395360866,9.96125986684255
7.2,4968.741586739958,-8.682692755771738,23.977561421434096,9.79488102018848
7.300000000000001,4967.867259982945,-8.803842297222758,23.977254109356533,9.922283506014239
7.4,4966.980844865558,-8.924459960970117,23.97694280005608,9.920339885521411
7.5,4966.082367603347,-9.045085193730102,23.97663155173626,9.955799506125441
7.6000000000000005,4965.1718352394,-9.16556199504436,23.976319190879224,9.816061403590412
7.7,4964.2492260812605,-9.286621080094914,23.976011214272134,9.845856801931786
7.800000000000001,4963.314517254549,-9.407555365942471,23.975702302841462,9.78926271338622
7.9,4962.3677032232235,-9.52872517339195,23.975395167036947,9.965660805851282
8.0,4961.40880902494,-9.649158701934203,23.975082496783962,10.00297549934687
8.1,4960.437879282948,-9.76943604687252,23.974768655791284,9.945052477760571
8.200000000000001,4959.45490975367,-9.889954448710357,23.974456632119722,10.029694868416172
8.3,4958.459906063975,-10.010119253670009,23.974141952813152,9.831401194405865
8.4,4957.452844565142,-10.131110635046443,23.973833494923753,9.900681444525619
8.5,4956.433698403817,-10.251812502274838,23.973522863382875,9.956089242460612
8.6,4955.402493638665,-10.372282710584928,23.97321049343543,9.89011313356102
8.700000000000001,4954.359228119237,-10.493027588982752,23.972900193472814,10.048330944303896
8.8,4953.303921138261,-10.613111938661627,23.972584929463768,9.949230161839566
8.9,4952.236585080092,-10.733609134655547,23.972272774718355,9.957806413972254
9.0,4951.157201118145,-10.854070014035873,23.97196035089506,9.847303306457675
9.1,4950.065748046723,-10.974991326184927,23.971651394080652,9.918501770278297
9.200000000000001,4948.9622177212395,-11.095615093956097,23.971340203431264,9.888267116545197
9.3,4947.846618739364,-11.216364454562637,23.971029961386993,9.937692097023989
9.4,4946.7189551575275,-11.336907092306216,23.97071816864564,9.997868025937992
9.5,4945.579249890954,-11.457198148201146,23.970404487898733,9.90900203792928
9.600000000000001,4944.427497009315,-11.577859395229195,23.970093595301204,10.016856926860449
9.700000000000001,4943.263700527779,-11.69807014416065,23.96977931878202,9.966849085688795
9.8,4942.08787256722,-11.818488976612134,23.969466611247036,9.987715386718525
9.9,4940.900007103261,-11.93882021177923,23.969153249036786,9.85715953501737
10.0,4939.700081308648,-12.059695592044097,23.968843982985536,9.90402271782184
10.100000000000001,4938.488077778477,-12.180374922077007,23.968533246613,9.889471022292438
10.200000000000001,4937.264003306479,-12.30111442886214,23.96822296679647,10.013406376998113
10.3,4936.027880764831,-12.421336312821568,23.967908798537472,9.84923984351785
10.4,4934.779701814718,-12.542242601143014,23.96759978096467,9.915684643490595
10.5,4933.5194461237625,-12.66287112845471,23.96728867870197,9.764852209148627
10.600000000000001,4932.247096140345,-12.784128453086462,23.966982308771257,9.999022509690839
10.700000000000001,4930.962669303614,-12.904408190506947,23.966668591802698,9.920341285957681
10.8,4929.666198105586,-13.025015680468046,23.96635734343894,9.884969090359583
10.9,4928.357658805824,-13.145770225817278,23.96604720486946,9.969564656420705
11.0,4927.037061727412,-13.26617125194135,23.965734412134086,9.784551346246001
11.100000000000001,4925.704385973652,-13.387343736097687,23.965427424147602,9.923658027029935
11.200000000000001,4924.359622020242,-13.507935242459284,23.965116071721877,10.039852209216477
11.3,4923.002823185662,-13.628041357356611,23.96480107373114,9.919340895365723
11.4,4921.633988623507,-13.748649796150787,23.9644898567544,9.866762822176984
11.5,4920.253082274259,-13.869477100174763,23.964180289402286,10.101839230745222
11.600000000000001,4918.860142269084,-13.989322910416398,23.9638633465834,9.954374943648343
11.700000000000001,4917.455186942437,-14.109783532283096,23.963551030421673,9.838648431343152
11.8,4916.038161434103,-14.230726546248668,23.963242345151926,10.029613977518542
11.9,4914.609081496677,-14.35087211066648,23.96292766838329,9.90746054202704
12.0,4913.167961542066,-14.471526892173618,23.96261682414983,9.856473879039932
12.100000000000001,4911.714765497236,-14.592393915953823,23.962307579610872,9.843635898080114
12.200000000000001,4910.24948009776,-14.713313985310663,23.961998737860533,10.036944403102117
12.3,4908.772143054646,-14.833426785224136,23.961683831101528,9.863905480583705
12.4,4907.28275865133,-14.954261192482765,23.96137435339783,9.951319907125779
12.5,4905.781309074726,-15.074730249413653,23.961062133087154,9.987366179530971
12.600000000000001,4904.2678201413955,-15.195048326343572,23.960748781833196,9.9708521142798
12.700000000000001,4902.742295981531,-15.315434780391035,23.960435948704134,9.892192205337563
12.8,4901.204716788745,-15.436148986196718,23.96012558351113,9.786723906128634
12.9,4899.6550441928,-15.557302845459914,23.95981852736109,10.017825256635277
13.0,4898.093304464376,-15.677491631601578,23.959504220460786,9.94734718139765
13.100000000000001,4896.519531176886,-15.797974028076359,23.95919212479344,9.871242794664775
13.200000000000001,4894.933693794565,-15.9187735295621,23.958882416883245,9.901536759350638
13.3,4893.335782810855,-16.03944605534677,23.958571758507066,9.907742176287318
13.4,4891.725805896401,-16.160092144307146,23.9582609054374,9.920893020237715
13.5,4890.103767144435,-16.280682805348597,23.957949639763108,9.810624742039275
13.600000000000001,4888.469646340187,-16.401733191911806,23.95764183372999,9.974418684366654
13.700000000000001,4886.823454707955,-16.52209936209152,23.957328888700637,9.854778363270585
13.8,4885.165201516219,-16.642964384139322,23.95701969735809,9.988088761067482
13.9,4883.49488967189,-16.763272411543095,23.95670632343331,9.918211994556847
14.0,4881.812532467994,-16.883871576734364,23.956395141875564,9.855246460404484
14.100000000000001,4880.118102232659,-17.004733041476488,23.956085935846577,9.98410960602492
14.200000000000001,4878.411612773333,-17.12505605422033,23.955772686766846,9.850792655232034
14.3,4876.693063214098,-17.245935042054423,23.955463620474944,9.875882787362544
14.4,4874.96243101948,-17.366708761425926,23.955153766986076,9.907270795151446
14.5,4873.219728031055,-17.48735091764139,23.95484292870588,9.96282805132242
14.600000000000001,4871.464972450189,-17.607760609231125,23.954530347329897,9.885928415931856
14.700000000000001,4869.698159875993,-17.728490785628832,23.954220178661803,0.0
14.8,4867.91721079743,-17.89049078562883,23.954220178661803,0.0
14.9,4866.120061718867,-18.05249078562883,23.954220178661803,0.0
15.0,4864.306712640304,-18.21449078562883,23.954220178661803,0.0
15.100000000000001,4862.477163561741,-18.376490785628828,23.954220178661803,0.0
15.200000000000001,4860.631414483178,-18.538490785628827,23.954220178661803,0.0
15.3,4858.7694654046145,-18.700490785628826,23.954220178661803,0.0
15.4,4856.891316326051,-18.862490785628825,23.954220178661803,0.0
15.5,4854.996967247488,-19.024490785628824,23.954220178661803,0.0
15.600000000000001,4853.086418168925,-19.186490785628823,23.954220178661803,0.0
15.700000000000001,4851.159669090362,-19.348490785628822,23.954220178661803,0.0
15.8,4849.216720011798,-19.51049078562882,23.954220178661803,0.0
15.9,4847.257570933235,-19.67249078562882,23.954220178661803,0.0
16.0,4845.282221854673,-19.83449078562882,23.954220178661803,0.0
16.1,4843.29067277611,-19.99649078562882,23.954220178661803,0.0
16.2,4841.282923697548,-20.158490785628818,23.954220178661803,0.0
16.3,4839.258974618985,-20.320490785628817,23.954220178661803,0.0
16.400000000000002,4837.218825540423,-20.482490785628816,23.954220178661803,0.0
16.5,4835.16247646186,-20.644490785628815,23.954220178661803,0.0
16.6,4833.089927383297,-20.806490785628814,23.954220178661803,0.0
16.7,4831.001178304735,-20.968490785628813,23.954220178661803,0.0
16.8,4828.896229226172,-21.130490785628812,23.954220178661803,0.0
16.900000000000002,4826.7750801476095,-21.29249078562881,23.954220178661803,0.0
17.0,4824.637731069047,-21.45449078562881,23.954220178661803,0.0
17.1,4822.484181990484,-21.61649078562881,23.954220178661803,0.0
17.2,4820.314432911921,-21.778490785628808,23.954220178661803,0.0
17.3,4818.128483833359,-21.940490785628807,23.954220178661803,0.0
17.400000000000002,4815.926334754796,-22.102490785628806,23.954220178661803,0.0
17.5,4813.707985676233,-22.264490785628805,23.954220178661803,0.0
17.6,4811.47343659767,-22.426490785628804,23.954220178661803,0.0
17.7,4809.222687519107,-22.588490785628803,23.954220178661803,0.0
17.8,4806.955738440544,-22.750490785628802,23.954220178661803,0.0
17.900000000000002,4804.672589361981,-22.9124907856288,23.954220178661803,0.0
18.0,4802.373240283418,-23.0744907856288,23.954220178661803,0.0
18.1,4800.0576912048555,-23.2364907856288,23.954220178661803,0.0
18.2,4797.7259421262925,-23.3984907856288,23.954220178661803,0.0
18.3,4795.377993047729,-23.560490785628797,23.954220178661803,0.0
18.400000000000002,4793.013843969166,-23.722490785628796,23.954220178661803,0.0
18.5,4790.633494890603,-23.884490785628795,23.954220178661803,0.0
18.6,4788.23694581204,-24.046490785628794,23.954220178661803,0.0
18.7,4785.824196733477,-24.208490785628793,23.954220178661803,0.0
18.8,4783.395247654914,-24.370490785628792,23.954220178661803,0.0
18.900000000000002,4780.950098576351,-24.53249078562879,23.954220178661803,0.0
19.0,4778.4887494977875,-24.69449078562879,23.954220178661803,0.0
19.1,4776.011200419224,-24.85649078562879,23.954220178661803,0.0
19.200000000000003,4773.517451340661,-25.01849078562879,23.954220178661803,0.0
19.3,4771.007502262098,-25.180490785628788,23.954220178661803,0.0
19.400000000000002,4768.481353183534,-25.342490785628787,23.954220178661803,0.0
19.5,4765.939004104972,-25.504490785628786,23.954220178661803,0.0
19.6,4763.380455026409,-25.666490785628785,23.954220178661803,0.0
19.700000000000003,4760.805705947847,-25.828490785628784,23.954220178661803,0.0
19.8,4758.214756869284,-25.990490785628783,23.954220178661803,0.0
19.900000000000002,4755.607607790722,-26.152490785628782,23.954220178661803,0.0
20.0,4752.984258712159,-26.31449078562878,23.954220178661803,0.0
20.1,4750.344709633597,-26.47649078562878,23.954220178661803,0.0
20.200000000000003,4747.688960555034,-26.63849078562878,23.954220178661803,0.0
20.3,4745.017011476471,-26.800490785628778,23.954220178661803,0.0
20.400000000000002,4742.328862397909,-26.962490785628777,23.954220178661803,0.0
20.5,4739.624513319346,-27.124490785628776,23.954220178661803,0.0
20.6,4736.903964240783,-27.286490785628775,23.954220178661803,0.0
20.700000000000003,4734.167215162221,-27.448490785628774,23.954220178661803,0.0
20.8,4731.414266083658,-27.610490785628773,23.954220178661803,0.0
20.900000000000002,4728.645117005095,-27.772490785628772,23.954220178661803,0.0
21.0,4725.859767926532,-27.93449078562877,23.954220178661803,0.0
21.1,4723.058218847969,-28.09649078562877,23.954220178661803,0.0
21.200000000000003,4720.240469769406,-28.25849078562877,23.954220178661803,0.0
21.3,4717.4065206908435,-28.42049078562877,23.954220178661803,0.0
21.400000000000002,4714.556371612281,-28.582490785628767,23.954220178661803,0.0
21.5,4711.690022533718,-28.744490785628766,23.954220178661803,0.0
21.6,4708.807473455155,-28.906490785628765,23.954220178661803,0.0
21.700000000000003,4705.908724376592,-29.068490785628764,23.954220178661803,0.0
21.8,4702.993775298029,-29.230490785628763,23.954220178661803,0.0
21.900000000000002,4700.0626262194655,-29.392490785628762,23.954220178661803,0.0
22.0,4697.115277140902,-29.55449078562876,23.954220178661803,0.0
22.1,4694.151728062339,-29.71649078562876,23.954220178661803,0.0
22.200000000000003,4691.171978983776,-29.87849078562876,23.954220178661803,0.0
22.3,4688.176029905213,-30.04049078562876,23.954220178661803,0.0
22.400000000000002,4685.16388082665,-30.202490785628758,23.954220178661803,0.0
22.5,4682.135531748087,-30.364490785628757,23.954220178661803,0.0
22.6,4679.090982669523,-30.526490785628756,23.954220178661803,0.0
22.700000000000003,4676.03023359096,-30.688490785628755,23.954220178661803,0.0
22.8,4672.953284512397,-30.850490785628754,23.954220178661803,0.0
22.900000000000002,4669.860135433833,-31.012490785628753,23.954220178661803,0.0
23.0,4666.750786355271,-31.174490785628752,23.954220178661803,0.0
23.1,4663.6252372767085,-31.33649078562875,23.954220178661803,0.0
23.200000000000003,4660.483488198146,-31.49849078562875,23.954220178661803,0.0
23.3,4657.3255391195835,-31.66049078562875,23.954220178661803,0.0
23.400000000000002,4654.151390041021,-31.822490785628748,23.954220178661803,0.0
23.5,4650.961040962458,-31.984490785628747,23.954220178661803,0.0
23.6,4647.754491883896,-32.14649078562875,23.954220178661803,0.0
23.700000000000003,4644.531742805333,-32.30849078562875,23.954220178661803,0.0
23.8,4641.2927937267705,-32.47049078562875,23.954220178661803,0.0
23.900000000000002,4638.037644648208,-32.63249078562875,23.954220178661803,0.0
24.0,4634.766295569645,-32.794490785628746,23.954220178661803,0.0
24.1,4631.478746491082,-32.956490785628745,23.954220178661803,0.0
24.200000000000003,4628.17499741252,-33.118490785628744,23.954220178661803,0.0
24.3,4624.855048333957,-33.28049078562874,23.954220178661803,0.0
24.400000000000002,4621.518899255394,-33.44249078562874,23.954220178661803,0.0
24.5,4618.166550176831,-33.60449078562874,23.954220178661803,0.0
24.6,4614.798001098268,-33.76649078562874,23.954220178661803,0.0
24.700000000000003,4611.413252019705,-33.92849078562874,23.954220178661803,0.0
24.8,4608.0123029411425,-34.09049078562874,23.954220178661803,0.0
24.900000000000002,4604.5951538625795,-34.25249078562874,23.954220178661803,0.0
25.0,4601.161804784017,-34.414490785628736,23.954220178661803,0.0
25.1,4597.712255705454,-34.576490785628735,23.954220178661803,0.0
25.200000000000003,4594.246506626891,-34.738490785628734,23.954220178661803,0.0
25.3,4590.7645575483275,-34.90049078562873,23.954220178661803,0.0
25.400000000000002,4587.266408469764,-35.06249078562873,23.954220178661803,0.0
25.5,4583.752059391201,-35.22449078562873,23.954220178661803,0.0
