Time[s],Pos[m],V[m/s],mass[kg],T[N]
0.0,5000.0,0.0,24.0,9.86340894867253
0.1,4999.993954885696,-0.1209021977505196,23.999690537874873,10.009298395294325
0.2,4999.975849972404,-0.24119597713647617,23.99937649850283,9.901163700387986
0.30000000000000004,4999.945693179618,-0.36193978957830925,23.999065851831286,9.8722030954314
0.4,4999.903455998543,-0.48280374343588606,23.99875611379188,9.91277658702303
0.5,4999.84914090195,-0.6034980992070241,23.998445102768766,9.972747359152391
0.6000000000000001,4999.782768891374,-0.7239420220131455,23.998132210176845,9.935779126139181
0.7000000000000001,4999.704344813226,-0.8445394512966385,23.9978204774545,9.81763011741269
0.8,4999.613836402217,-0.9656286813596797,23.997512451629387,9.917656754482751
0.9,4999.51123993568,-1.0863005600647813,23.99720128749217,9.883252221276493
1.0,4999.396569139559,-1.2071152736738973,23.996891202789055,10.026287029715663
1.1,4999.2698467017235,-1.3273333917531864,23.996576630402622,10.006944697515005
1.2000000000000002,4999.131098449204,-1.4476315677119407,23.99626266487729,9.9416282519414
1.3,4998.980306796539,-1.568201395836262,23.995950748640002,9.847876918995134
1.4000000000000001,4998.817438652995,-1.6891613869450353,23.995641773828634,9.840725276342159
1.5,4998.642473046555,-1.8101506539142633,23.995333023398366,9.951691693460022
1.6,4998.455431662502,-1.9306769372086077,23.99502079142298,9.836799071642627
1.7000000000000002,4998.256313735967,-2.051681505619608,23.994712164176455,9.99861699814266
1.8,4998.045129098744,-2.1720111480395183,23.994398459930725,9.89701477285444
1.9000000000000001,4997.821890352264,-2.2927636925986263,23.994087943430802,9.986541549048498
2.0,4997.586595034187,-2.4131425783579323,23.993774618049432,9.9547126110718
2.1,4997.339255221903,-2.533653577313681,23.993462291293472,9.991178639230307
2.2,4997.079871935952,-2.654012051029977,23.993148820424494,9.968747820804857
2.3000000000000003,4996.80844815537,-2.7744634703467823,23.992836053317145,9.925007624939717
2.4000000000000004,4996.524970144596,-2.89509665564396,23.992524658548103,9.981621532174128
2.5,4996.229440640479,-3.0154933361970055,23.9922114875311,10.02238676625277
2.6,4995.921879991047,-3.1357195611932873,23.991897037514512,9.891731518444752
2.7,4995.602269517218,-3.2564898264978246,23.99158668677545,9.97853650358561
2.8000000000000003,4995.270600134396,-3.376897739483923,23.99127361255049,9.944481665402291
2.9000000000000004,4994.926882890013,-3.4974470583304345,23.99096160678803,10.060911705728644
3.0,4994.5711350063075,-3.6175105238182343,23.990645948060568,9.91730287549028
3.1,4994.20335087321,-3.738172048772335,23.99033479502622,9.968430726041568
3.2,4993.823511270444,-3.8586199162573527,23.990022037867643,9.848725229059022
3.3000000000000003,4993.431601958782,-3.9795662288456066,23.989713036440747,9.956282234829263
3.4000000000000004,4993.027620459813,-4.100063660466076,23.98940066043821,9.907320436167963
3.5,4992.611579039733,-4.2207646519438216,23.989089820600537,9.88267083270552
3.6,4992.183462409548,-4.341567863005754,23.98877975413835,9.932769027461651
3.7,4991.743275926978,-4.462161698756749,23.98846811585714,9.818624801210524
3.8000000000000003,4991.291006296044,-4.583230832312379,23.988160058824054,10.010359501270784
3.9000000000000004,4990.826669742826,-4.703500140966261,23.98784598616006,10.001519379274123
4.0,4990.350304443422,-4.823805756223677,23.987532190852807,9.970492313550347
4.1000000000000005,4989.861902142375,-4.944240174372774,23.987219369012408,9.859334972805419
4.2,4989.3614332562975,-5.065137458823849,23.98691003470731,9.893336618306002
4.3,4988.848881755881,-5.185892460545234,23.98659963360862,10.027158709708367
4.4,4988.324282677399,-5.306089017707247,23.986285033873433,9.950048682559338
4.5,4987.787647896702,-5.4266065062687785,23.985972853447127,9.953380468772176
4.6000000000000005,4987.238962088677,-5.547109564184827,23.985660568486814,9.821587370341797
4.7,4986.678198528327,-5.668161555131357,23.985352418503826,9.95680491092226
4.800000000000001,4986.105357982954,-5.788649262220431,23.98504002610245,9.880670445305967
4.9,4985.520452822529,-5.909453857550145,23.984730022401944,9.846754088570284
5.0,4984.923460158726,-6.030399330372428,23.984421082819118,9.822262288820296
5.1000000000000005,4984.314367868265,-6.1514463911390305,23.98411291166072,9.92372872316659
5.2,4983.693192051063,-6.272069863377808,23.98380155701692,9.98063131857565
5.300000000000001,4983.059965776311,-6.392455541100649,23.983488417067637,10.025325304565342
5.4,4982.414710278693,-6.5126543198954066,23.9831738748551,10.014860212554968
5.5,4981.75743274883,-6.632896186172652,23.982859660982356,10.061878535689607
5.6000000000000005,4981.088140862265,-6.752941453078599,23.982543971920833,9.969711826949334
5.7,4980.406825261081,-6.873370480227617,23.982231174568017,9.998338177816086
5.800000000000001,4979.713472752587,-6.993679598772974,23.98191747907021,9.898245029235285
5.9,4979.008068490862,-7.1144055466570455,23.981606923971285,9.946223837941467
6.0,4978.29060166441,-7.23493089242472,23.981294863548573,9.896287761712928
6.1000000000000005,4977.561071918813,-7.355663930470342,23.980984369858454,9.983755420090256
6.2,4976.8194871331625,-7.476031691900646,23.980671131891224,10.059775818745727
6.300000000000001,4976.065881449046,-7.596081898397453,23.980355508801946,9.885268091545825
6.4,4975.300234386012,-7.716859273430035,23.980045360851374,9.915430825704618
6.5,4974.522515901318,-7.8375103310334024,23.979734266552146,10.031458554503656
6.6000000000000005,4973.732756530769,-7.957676988448575,23.979419531910345,9.951318012474122
6.7,4972.93096381151,-8.078177306671135,23.979107311659114,9.98015094062677
6.800000000000001,4972.117127099593,-8.198556841100542,23.978794186781574,9.90303646209289
6.9,4971.291236381544,-8.319257430692968,23.978483481352576,9.945728130600134
7.0,4970.453284533449,-8.439779441255295,23.978171436482565,10.050671567549788
7.1000000000000005,4969.6033023945965,-8.559863243921184,23.97785609903702,9.92728744956092
7.2,4968.741286174052,-8.680461077332167,23.97754463273902,9.997346233708074
7.300000000000001,4967.867224806433,-8.80076618413942,23.97723096836322,9.972690443332349
7.4,4966.98112781386,-8.921173576859811,23.97691807755702,10.051388973067198
7.5,4966.083006520608,-9.04125219629571,23.976602717603043,9.930549191242944
7.6000000000000005,4965.17285219324,-9.161834261357251,23.97629114896867,9.984922660758476
7.7,4964.250651025383,-9.282189005087776,23.975977874379538,9.782017664469926
7.800000000000001,4963.316372095768,-9.403389500164854,23.97567096588672,9.921919810704319
7.9,4962.370002318866,-9.524005948321726,23.97535966799712,9.865925696953191
8.0,4961.411559246484,-9.644855410758904,23.97505012690961,9.846601744209243
8.1,4960.441027224376,-9.765784943199057,23.974741192106553,9.935737148618312
8.200000000000001,4959.458420865086,-9.88634215278793,23.97442946070124,9.96255028344686
8.3,4958.463764403857,-10.006786981496072,23.97411688804016,10.044835999581236
8.4,4957.457080648362,-10.126888036605585,23.97380173368418,9.921138119166852
8.5,4956.438361016118,-10.247504518724478,23.97349046031997,9.971260835385808
8.6,4955.407590216398,-10.36791138520373,23.97317761436738,9.818502650963767
8.700000000000001,4954.364746896666,-10.488954921722382,23.972869561166732,10.014172248355354
8.8,4953.309840060583,-10.609181708686478,23.9725553688787,9.9538700760915
8.9,4952.242897995734,-10.729659498141693,23.972243068557077,9.946084945376223
9.0,4951.163906555192,-10.850169222686315,23.97193101249209,9.99407906230811
9.1,4950.072874179769,-10.970478194872053,23.97161745062302,9.876020998276243
9.200000000000001,4948.969786309631,-11.091279119139942,23.971307592797817,9.845176917071838
9.3,4947.854611940096,-11.212208183350885,23.970998702698374,9.982336240420368
9.4,4946.72737330028,-11.332564522287877,23.970685509257567,9.906697055386683
9.5,4945.588083276204,-11.453235869919483,23.97037468897832,9.90822603604083
9.600000000000001,4944.436726463094,-11.573900302935991,23.970063820727667,9.918042074629907
9.700000000000001,4943.273305281065,-11.694523248094896,23.96975264450112,9.927497233608012
9.8,4942.097823803707,-11.81510620936944,23.969441171621195,9.913864266031874
9.9,4940.910281213284,-11.93574550963342,23.969130126472407,9.984321693719853
10.0,4939.710689417335,-12.056090318623914,23.968816870738475,10.031876568841684
10.100000000000001,4938.499073087948,-12.176236177509765,23.968502122981572,9.849622541453085
10.200000000000001,4937.275404180337,-12.297141886394664,23.968193093401712,9.879750651954687
10.3,4936.039651013403,-12.417921363428176,23.967883118559506,9.956111158268206
10.4,4934.791835855315,-12.538381708098573,23.967570747924455,9.937476004743838
10.5,4933.53197080222,-12.658919263921645,23.967258961962944,9.909323999374747
10.600000000000001,4932.260046147447,-12.779573742152085,23.96694805926395,9.869875799869073
10.700000000000001,4930.9760478418875,-12.900392280341045,23.966638394242892,9.997640531780165
10.8,4929.67999436405,-13.020677185415815,23.966324720633562,9.946150274902307
10.9,4928.3719016807,-13.141176391513206,23.966012662518875,9.942446060812147
11.0,4927.051758330947,-13.261690513545616,23.96570072062303,9.96213192525238
11.100000000000001,4925.719567703118,-13.382121952689513,23.965388161087837,9.861635669561924
11.200000000000001,4924.375312991342,-13.502972194282,23.965078754598924,9.839738088130948
11.3,4923.018968713288,-13.623913278651232,23.964770035141452,10.01639897908781
11.4,4921.65056721202,-13.744116655357843,23.96445577299027,9.910023950844687
11.5,4920.27012320596,-13.864763376428288,23.964144848330463,10.01438734128232
11.600000000000001,4918.877636329713,-13.984974057194798,23.963830649293943,9.928980479624494
11.700000000000001,4917.4731105926785,-14.105540593731815,23.963519129877525,9.86029888936948
11.8,4916.05651389835,-14.22639320430298,23.963209765329772,9.96106724604688
11.9,4914.627852995345,-14.346824765434173,23.96289723919864,9.987826054374393
12.0,4913.187154546767,-14.467144115297238,23.96258387351622,9.866693692981709
12.100000000000001,4911.734398914923,-14.58796843291679,23.962274308333015,9.858931405471646
12.200000000000001,4910.269559258211,-14.708824612793046,23.961964986689747,9.853743512512384
12.3,4908.792632927532,-14.829701912357747,23.961655827815395,10.00301156327354
12.4,4907.30365004097,-14.949955727770783,23.96134198569122,10.022348389111896
12.5,4905.802645835245,-15.070128295241448,23.961027536878703,9.952047863122328
12.600000000000001,4904.289609730326,-15.190593712918592,23.96071529372858,9.931247121571328
12.700000000000001,4902.764522770072,-15.311145402321552,23.960403703196807,10.03686953047724
12.8,4901.227402709053,-15.431255726291171,23.960088798786913,9.895671669887244
12.9,4899.678242177689,-15.551954811809996,23.95977832442653,9.89255391988782
13.0,4898.1170111139045,-15.672666374743145,23.959467947884818,9.86828186807188
13.100000000000001,4896.543703855294,-15.793478708759606,23.959158332872995,9.890319301111365
13.200000000000001,4894.958319988892,-15.91419853016834,23.958848026441917,10.12182833211118
13.3,4893.360912481394,-16.0339515264602,23.958530456469695,10.048364213490313
13.4,4891.751514370615,-16.154010597134675,23.958215191416837,9.911667006963993
13.5,4890.130081851862,-16.274639688430693,23.957904215206533,9.917747270979202
13.600000000000001,4888.496587719787,-16.395242863446946,23.95759304822938,9.97059755049177
13.700000000000001,4886.851044327155,-16.51562489862765,23.9572802230872,9.93730672363059
13.8,4885.19345581016,-16.636145351309104,23.956968442436843,9.893496869890132
13.9,4883.523806131362,-16.756848135476705,23.956658036310294,9.894470219943491
14.0,4881.842086404052,-16.877546321538084,23.95634759964512,10.00301028693968
14.100000000000001,4880.14831953881,-16.99779089213245,23.95603375756099,9.97576800808323
14.200000000000001,4878.44252255792,-17.118148635001393,23.955720770196923,9.953174348466428
14.3,4876.724685114192,-17.238600149286523,23.955408491703587,10.060878646134308
14.4,4874.994825026476,-17.35860151279603,23.95509283401336,9.940452812928092
14.5,4873.252939694114,-17.47910504441911,23.954780954655195,9.852647655061698
14.600000000000001,4871.498985708171,-17.599974585969044,23.95447183016311,9.966887843186418
14.700000000000001,4869.732968640093,-17.72036668507368,23.95415912141212,0.0
14.8,4867.9528319715855,-17.88236668507368,23.95415912141212,0.0
14.9,4866.156495303078,-18.04436668507368,23.95415912141212,0.0
15.0,4864.343958634571,-18.20636668507368,23.95415912141212,0.0
15.100000000000001,4862.515221966064,-18.368366685073678,23.95415912141212,0.0
15.200000000000001,4860.670285297557,-18.530366685073677,23.95415912141212,0.0
15.3,4858.80914862905,-18.692366685073676,23.95415912141212,0.0
15.4,4856.931811960542,-18.854366685073675,23.95415912141212,0.0
15.5,4855.038275292035,-19.016366685073674,23.95415912141212,0.0
15.600000000000001,4853.128538623528,-19.178366685073673,23.95415912141212,0.0
15.700000000000001,4851.20260195502,-19.340366685073672,23.95415912141212,0.0
15.8,4849.260465286513,-19.50236668507367,23.95415912141212,0.0
15.9,4847.302128618006,-19.66436668507367,23.95415912141212,0.0
16.0,4845.327591949498,-19.82636668507367,23.95415912141212,0.0
16.1,4843.336855280991,-19.988366685073668,23.95415912141212,0.0
16.2,4841.329918612483,-20.150366685073667,23.95415912141212,0.0
16.3,4839.306781943976,-20.312366685073666,23.95415912141212,0.0
16.400000000000002,4837.267445275468,-20.474366685073665,23.95415912141212,0.0
16.5,4835.211908606961,-20.636366685073664,23.95415912141212,0.0
16.6,4833.140171938453,-20.798366685073663,23.95415912141212,0.0
16.7,4831.052235269945,-20.960366685073662,23.95415912141212,0.0
16.8,4828.948098601438,-21.12236668507366,23.95415912141212,0.0
16.900000000000002,4826.82776193293,-21.28436668507366,23.95415912141212,0.0
17.0,4824.691225264422,-21.44636668507366,23.95415912141212,0.0
17.1,4822.538488595915,-21.60836668507366,23.95415912141212,0.0
17.2,4820.369551927407,-21.770366685073657,23.95415912141212,0.0
17.3,4818.184415258899,-21.932366685073656,23.95415912141212,0.0
17.400000000000002,4815.983078590391,-22.094366685073656,23.95415912141212,0.0
17.5,4813.765541921884,-22.256366685073655,23.95415912141212,0.0
17.6,4811.531805253377,-22.418366685073654,23.95415912141212,0.0
17.7,4809.28186858487,-22.580366685073653,23.95415912141212,0.0
17.8,4807.015731916363,-22.74236668507365,23.95415912141212,0.0
17.900000000000002,4804.733395247856,-22.90436668507365,23.95415912141212,0.0
18.0,4802.434858579349,-23.06636668507365,23.95415912141212,0.0
18.1,4800.120121910842,-23.22836668507365,23.95415912141212,0.0
18.2,4797.7891852423345,-23.390366685073648,23.95415912141212,0.0
18.3,4795.442048573827,-23.552366685073647,23.95415912141212,0.0
18.400000000000002,4793.07871190532,-23.714366685073646,23.95415912141212,0.0
18.5,4790.699175236813,-23.876366685073645,23.95415912141212,0.0
18.6,4788.303438568306,-24.038366685073644,23.95415912141212,0.0
18.7,4785.891501899799,-24.200366685073643,23.95415912141212,0.0
18.8,4783.463365231291,-24.362366685073642,23.95415912141212,0.0
18.900000000000002,4781.019028562784,-24.52436668507364,23.95415912141212,0.0
19.0,4778.558491894277,-24.68636668507364,23.95415912141212,0.0
19.1,4776.0817552257695,-24.84836668507364,23.95415912141212,0.0
19.200000000000003,4773.588818557262,-25.010366685073638,23.95415912141212,0.0
19.3,4771.079681888755,-25.172366685073637,23.95415912141212,0.0
19.400000000000002,4768.554345220247,-25.334366685073636,23.95415912141212,0.0
19.5,4766.01280855174,-25.496366685073635,23.95415912141212,0.0
19.6,4763.455071883232,-25.658366685073634,23.95415912141212,0.0
19.700000000000003,4760.881135214725,-25.820366685073633,23.95415912141212,0.0
19.8,4758.290998546217,-25.982366685073632,23.95415912141212,0.0
19.900000000000002,4755.68466187771,-26.14436668507363,23.95415912141212,0.0
20.0,4753.062125209202,-26.30636668507363,23.95415912141212,0.0
20.1,4750.423388540695,-26.46836668507363,23.95415912141212,0.0
20.200000000000003,4747.768451872187,-26.63036668507363,23.95415912141212,0.0
20.3,4745.0973152036795,-26.792366685073628,23.95415912141212,0.0
20.400000000000002,4742.409978535172,-26.954366685073627,23.95415912141212,0.0
20.5,4739.706441866664,-27.116366685073626,23.95415912141212,0.0
20.6,4736.986705198156,-27.278366685073625,23.95415912141212,0.0
20.700000000000003,4734.250768529649,-27.440366685073624,23.95415912141212,0.0
20.8,4731.498631861141,-27.602366685073623,23.95415912141212,0.0
20.900000000000002,4728.730295192633,-27.76436668507362,23.95415912141212,0.0
21.0,4725.945758524126,-27.92636668507362,23.95415912141212,0.0
21.1,4723.145021855619,-28.08836668507362,23.95415912141212,0.0
21.200000000000003,4720.328085187112,-28.25036668507362,23.95415912141212,0.0
21.3,4717.494948518605,-28.412366685073618,23.95415912141212,0.0
21.400000000000002,4714.645611850098,-28.574366685073617,23.95415912141212,0.0
21.5,4711.780075181591,-28.736366685073616,23.95415912141212,0.0
21.6,4708.898338513084,-28.898366685073615,23.95415912141212,0.0
21.700000000000003,4706.000401844577,-29.060366685073614,23.95415912141212,0.0
21.8,4703.08626517607,-29.222366685073613,23.95415912141212,0.0
21.900000000000002,4700.155928507563,-29.384366685073612,23.95415912141212,0.0
22.0,4697.209391839056,-29.54636668507361,23.95415912141212,0.0
22.1,4694.246655170548,-29.70836668507361,23.95415912141212,0.0
22.200000000000003,4691.267718502041,-29.87036668507361,23.95415912141212,0.0
22.3,4688.272581833534,-30.032366685073608,23.95415912141212,0.0
22.400000000000002,4685.261245165027,-30.194366685073607,23.95415912141212,0.0
22.5,4682.233708496519,-30.356366685073606,23.95415912141212,0.0
22.6,4679.189971828012,-30.518366685073605,23.95415912141212,0.0
22.700000000000003,4676.130035159505,-30.680366685073604,23.95415912141212,0.0
22.8,4673.053898490997,-30.842366685073603,23.95415912141212,0.0
22.900000000000002,4669.96156182249,-31.004366685073602,23.95415912141212,0.0
23.0,4666.853025153982,-31.1663666850736,23.95415912141212,0.0
23.1,4663.728288485475,-31.3283666850736,23.95415912141212,0.0
23.200000000000003,4660.587351816967,-31.4903666850736,23.95415912141212,0.0
23.3,4657.43021514846,-31.6523666850736,23.95415912141212,0.0
23.400000000000002,4654.256878479952,-31.814366685073598,23.95415912141212,0.0
23.5,4651.067341811445,-31.976366685073597,23.95415912141212,0.0
23.6,4647.861605142937,-32.1383666850736,23.95415912141212,0.0
23.700000000000003,4644.6396684744295,-32.3003666850736,23.95415912141212,0.0
23.8,4641.401531805922,-32.4623666850736,23.95415912141212,0.0
23.900000000000002,4638.147195137414,-32.624366685073596,23.95415912141212,0.0
24.0,4634.8766584689065,-32.786366685073595,23.95415912141212,0.0
24.1,4631.589921800399,-32.948366685073594,23.95415912141212,0.0
24.200000000000003,4628.286985131891,-33.11036668507359,23.95415912141212,0.0
24.3,4624.967848463383,-33.27236668507359,23.95415912141212,0.0
24.400000000000002,4621.632511794875,-33.43436668507359,23.95415912141212,0.0
24.5,4618.2809751263685,-33.59636668507359,23.95415912141212,0.0
24.6,4614.913238457862,-33.75836668507359,23.95415912141212,0.0
24.700000000000003,4611.529301789355,-33.92036668507359,23.95415912141212,0.0
24.8,4608.129165120848,-34.08236668507359,23.95415912141212,0.0
24.900000000000002,4604.712828452341,-34.24436668507359,23.95415912141212,0.0
25.0,4601.2802917838335,-34.406366685073586,23.95415912141212,0.0
25.1,4597.831555115326,-34.568366685073585,23.95415912141212,0.0
25.200000000000003,4594.366618446819,-34.730366685073584,23.95415912141212,0.0
25.3,4590.885481778312,-34.89236668507358,23.95415912141212,0.0
25.400000000000002,4587.388145109805,-35.05436668507358,23.95415912141212,0.0
25.5,4583.874608441298,-35.21636668507358,23.95415912141212,0.0
25.6,4580.344871772791,-35.37836668507358,23.95415912141212,0.0
25.700000000000003,4576.798935104283,-35.54036668507358,23.95415912141212,0.0
