Time[s],Pos[m],V[m/s],mass[kg],T[N]
0.0,5000.0,0.0,24.0,9.926849349231546
0.1,4999.993968102561,-0.12063785932878189,23.999688547447295,9.95847025034603
0.2,4999.975879033857,-0.2411434247057266,23.99937610279629,9.919514674820423
0.30000000000000004,4999.945731319601,-0.3618107710954191,23.99906488036726,9.86605891516362
0.4,4999.903505760359,-0.482700325366798,23.99875533510006,9.934426375710652
0.5,4999.849205516285,-0.6033044664959233,23.99844364481994,9.865217516317264
0.6000000000000001,4999.7828304654095,-0.7241964626562759,23.99813412595143,9.980425092310822
0.7000000000000001,4999.70439024508,-0.8446078535002459,23.997820992472445,10.036588500387488
0.8,4999.613920614673,-0.9647846631640429,23.997506096879803,10.047773273422452
0.9,4999.511435661164,-1.084914315343696,23.99719085036755,9.903090249912369
1.0,4999.396907623852,-1.2056463418418546,23.99688014325097,9.873642451822251
1.1,4999.2703002747985,-1.3265005507040415,23.996570360052097,9.945429514474904
1.2000000000000002,4999.131622489322,-1.4470550690052073,23.996258324551096,10.038737629338394
1.3,4998.9809087213525,-1.5672201988521508,23.995943361530042,9.882400005277367
1.4000000000000001,4998.818145891727,-1.6880363049601943,23.995633303565,10.054675154163654
1.5,4998.643337375598,-1.8081339258049094,23.99531784050787,9.898533822317688
1.6,4998.456486588854,-1.9288817200807222,23.99500727634813,10.012933307239233
1.7000000000000002,4998.257584887771,-2.0491522105231565,23.994693122931583,9.949621385480071
1.8,4998.046642971945,-2.169686016075338,23.99438095591162,9.911330536422863
1.9000000000000001,4997.823639723341,-2.290378866787775,23.994069990257998,9.891576623099974
2.0,4997.588563099982,-2.4111535115318734,23.99375964437874,9.899485948522425
2.1,4997.341410687029,-2.5318946585252853,23.993449050346268,9.849146640345912
2.2,4997.0821736957705,-2.6528450785152464,23.993140035697692,9.806648741439641
2.3000000000000003,4996.8108328326125,-2.773972097295445,23.992832354410655,9.890447233718794
2.4000000000000004,4996.527396757168,-2.894749322730749,23.992522043965725,9.851444876354625
2.5,4996.231874857745,-3.0156885775739846,23.992212957210537,9.898861656029672
2.6,4995.924268941074,-3.1364296668447453,23.991902382765094,10.00021287255783
2.7,4995.604610064326,-3.256747777253331,23.99158862844918,9.917854053925424
2.8000000000000003,4995.2729022395415,-3.3774086290825207,23.99127745812174,9.864662715400748
2.9000000000000004,4994.929117270729,-3.4982906587571945,23.990967956659976,9.881312808114892
3.0,4994.5732475955765,-3.61910275557519,23.990657932805487,9.996223014849202
3.1,4994.205320686512,-3.7394353349334746,23.990344303670415,9.904538475911494
3.2,4993.825341437949,-3.8601495472057237,23.99003355111609,9.908564717539457
3.3000000000000003,4993.433291634054,-3.980846441489422,23.98972267223938,9.94862944262199
3.4000000000000004,4993.029180517958,-4.101375790489904,23.989410536341392,9.90827396900942
3.5,4992.613008082767,-4.222072824110829,23.989099666586853,9.903286303159398
3.6,4992.184764931399,-4.342790114145185,23.98878895331915,9.918967439388679
3.7,4991.74445334622,-4.463441500013973,23.988477748059506,9.902864799000243
3.8000000000000003,4991.29207329292,-4.584159476891136,23.988167048016397,9.984636710035003
3.9000000000000004,4990.827638513032,-4.704536030271957,23.9878537823989,10.023283123556034
4.0,4990.351174160468,-4.824750929707614,23.98753930425931,9.949202370598345
4.1000000000000005,4989.862672903709,-4.9452741155155335,23.98722715038584,9.971738413591993
4.2,4989.362124052906,-5.06570281016455,23.98691428944935,9.859822581603815
4.3,4988.84950903103,-5.1865975390060415,23.98660493984564,9.975912888167949
4.4,4988.324828761972,-5.307007751707412,23.986291947935996,10.011745911658938
4.5,4987.788114968323,-5.427268030165045,23.985977831773706,9.889671319416012
4.6000000000000005,4987.239349726864,-5.548036710114458,23.9856675456729,9.918560491195699
4.7,4986.678513666306,-5.66868441164258,23.985356353181157,9.993797825891393
4.800000000000001,4986.10562854657,-5.789017892278867,23.985042800135815,9.938872685422831
4.9,4985.520698656033,-5.909579828663579,23.984730970353777,9.934612311157696
5.0,4984.923711710645,-6.0301589893923335,23.984419274239976,9.987663710719504
5.1000000000000005,4984.314677935749,-6.150516417844677,23.98410591365105,9.818998946939034
5.2,4983.69357328313,-6.271576546898876,23.98379784487923,10.05378174136918
5.300000000000001,4983.060411590448,-6.391657214853685,23.983482409852716,9.875634637606396
5.4,4982.4152047186735,-6.512480131969351,23.983172564149488,9.89945864519715
5.5,4981.757920548647,-6.6332031794704465,23.982861970973648,9.944080596668835
5.6000000000000005,4981.088573403562,-6.753739632331811,23.982549977794626,9.990557826894436
5.7,4980.407182330046,-6.87408174722411,23.98223652640349,9.939946872687841
5.800000000000001,4979.713746520416,-6.994634355561851,23.98192466291908,9.813028764099611
5.9,4979.008229015471,-7.115715655779792,23.98161678146034,9.836988583298549
6.0,4978.290608402269,-7.236696520279416,23.98130814826793,9.94107741421769
6.1000000000000005,4977.560911431275,-7.357242809748947,23.980996249313048,9.858605586157404
6.2,4976.819142662896,-7.478132469447446,23.980686937892283,9.948676828752776
6.300000000000001,4976.065303735178,-7.598645994927105,23.980374800507565,9.95002444353115
6.4,4975.299413762897,-7.71915336067001,23.980062620841753,9.88872937415055
6.5,4974.521460300516,-7.839915798025729,23.97975236429426,9.920804837342256
6.6000000000000005,4973.731437309165,-7.9605439394911155,23.979441101386687,9.894666473811245
6.7,4972.92934608031,-8.081280548564981,23.979130658564095,9.989653582443925
6.800000000000001,4972.115201023634,-8.201620494199672,23.978817235543413,9.98765396801971
6.9,4971.289021582663,-8.321968234495316,23.978503875260163,9.847722152600072
7.0,4970.450778216031,-8.442899009952582,23.978194905304555,9.905784824893125
7.1000000000000005,4969.600453905807,-8.563587105277817,23.977884113646322,9.94240305889428
7.2,4968.738068448725,-8.684121946445485,23.977572173099652,10.02947460781816
7.300000000000001,4967.863647691531,-8.804293105946272,23.977257500703708,9.955032554790998
7.4,4966.977194322228,-8.92477418997323,23.976945163909587,9.956110063022866
7.5,4966.078693096263,-9.045250239155436,23.9766327933089,9.909093449753259
7.6000000000000005,4965.168134487671,-9.165921843382066,23.97632189784335,9.97990424388444
7.7,4964.245523512396,-9.286297571515378,23.97600878070586,9.998641845041234
7.800000000000001,4963.310878899095,-9.406594603566088,23.975695075680562,10.089619280063081
7.9,4962.364223582884,-9.526511628047869,23.975378516259738,9.901139980352989
8.0,4961.405537284819,-9.647214244074984,23.975067870332406,10.033686435827125
8.1,4960.434808394707,-9.767363466574324,23.974753065791354,9.956964549828015
8.200000000000001,4959.452048609124,-9.887832154889837,23.974440668381348,9.94780968946282
8.3,4958.4572400724555,-10.008338488446553,23.97412855820292,9.943103072057543
8.4,4957.450379947829,-10.12886391413358,23.973816595693503,9.964134895311627
8.5,4956.431471694072,-10.249301070674532,23.973503973315598,9.987801843112925
8.6,4955.400524687867,-10.369638962658996,23.973190608392798,9.820559565471585
8.700000000000001,4954.3575090382865,-10.490673941205335,23.972882490656943,9.999929197700583
8.8,4953.3024273284445,-10.610960164652719,23.97256874524126,9.909358780175179
8.9,4952.235298132962,-10.73162365564524,23.97225784145103,9.955452648814344
9.0,4951.1561122292715,-10.852094327981481,23.971945491476557,9.797220628115468
9.1,4950.064846281535,-10.973224539396188,23.971638105994348,9.97104059697348
9.200000000000001,4948.961503594512,-11.09362911059655,23.971325266951688,9.8743430453989
9.3,4947.846100307915,-11.214436532614556,23.97101546177186,9.917003082071444
9.4,4946.718625204066,-11.33506545486542,23.97070431814346,9.981535662706671
9.5,4945.579100695677,-11.455424622233556,23.970391149820593,10.007591032061342
9.600000000000001,4944.427545732708,-11.57567454600697,23.97007716401667,9.886837081178683
9.700000000000001,4943.263940616009,-11.696427699002923,23.96976696683942,9.846784585375248
9.8,4942.088251855833,-11.817347416261928,23.969458026299762,9.922980767462683
9.9,4940.900487044974,-11.937948711292245,23.969146695122895,9.994364297650732
10.0,4939.70067702234,-12.058251650483927,23.968833124304638,9.804994807062114
10.100000000000001,4938.488797229443,-12.179344119949832,23.9685254949094,9.895181821618575
10.200000000000001,4937.264827029647,-12.300059786838391,23.96821503591789,9.855592007003054
10.3,4936.028777031013,-12.420940097421058,23.96790581904746,9.880402563675238
10.4,4934.780644203678,-12.541716360419455,23.967595823751676,9.91176986518357
10.5,4933.520440320449,-12.66236121474189,23.96728484431422,9.787061867341887
10.600000000000001,4932.248145962097,-12.783525865110333,23.96697777756073,9.959952752464822
10.700000000000001,4930.96377123374,-12.90396861172437,23.96666528639657,9.93229435051956
10.8,4929.667346487582,-13.024526221621032,23.966353663008235,9.860570713445739
10.9,4928.358851043847,-13.14538256457611,23.966044289932068,9.892609962046595
11.0,4927.03827667673,-13.266104688672637,23.965733911632046,9.938304428047973
11.100000000000001,4925.705639657306,-13.386635609872023,23.96542209967895,9.945549757708262
11.200000000000001,4924.360951084375,-13.507135758693106,23.965110060405348,10.021102486524931
11.3,4923.004228286784,-13.62732010169151,23.96479565068273,10.010229760481922
11.4,4921.635484813825,-13.747549266249907,23.964481582089324,10.00957382552826
11.5,4920.254718314925,-13.867780620522332,23.96416753407572,9.955359443923458
11.600000000000001,4918.861917396317,-13.988237661397998,23.96385518702553,9.88506231352406
11.700000000000001,4917.457056133243,-14.108987511105276,23.963545045531195,10.032194174069787
11.8,4916.04015061126,-14.22912283690411,23.963230287809502,9.954999166991724
11.9,4914.611215477082,-14.349579756424088,23.962917952062917,9.853801745692518
12.0,4913.170213562421,-14.470458448363845,23.96260879136151,9.990496067888836
12.100000000000001,4911.717152327761,-14.590766153934837,23.962295341908046,9.870832553006721
12.200000000000001,4910.25203538047,-14.711572703143345,23.961985646869085,9.915479689249738
12.3,4908.774847121203,-14.832192392672725,23.961674551036776,10.07380322486905
12.4,4907.2856299569585,-14.952150799784217,23.961358487840947,9.871375017819227
12.5,4905.78437473881,-15.072953474434287,23.96104877578228,9.997102089513167
12.600000000000001,4904.271065515769,-15.193230895360053,23.96073511906645,9.832285887116695
12.700000000000001,4902.7456941846685,-15.314195638585451,23.960426633420024,9.959189826402369
12.8,4901.208252887877,-15.434630206892226,23.96011416619249,10.019595273306523
12.9,4899.658780766886,-15.554812121493605,23.959799803758333,9.973740777376355
13.0,4898.097280912736,-15.675184870890565,23.95948687999815,9.928001056303934
13.100000000000001,4896.523734265526,-15.795747983524082,23.959175391310907,9.971645749837323
13.200000000000001,4894.938140442206,-15.916128392314311,23.958862533281717,9.955472492071543
13.3,4893.340505229936,-16.036575762788072,23.958550182684668,10.02652381235826
13.4,4891.730840135802,-16.156726028303062,23.958235602869234,10.03604048697815
13.5,4890.109162028706,-16.276836021856962,23.957920724470384,9.856047836137698
13.600000000000001,4888.475435385126,-16.397696761245268,23.957611493298423,9.961244016469216
13.700000000000001,4886.829644648994,-16.518117870991542,23.95729896162116,9.9044302765692
13.8,4885.171799971613,-16.638775587255907,23.95698821246156,9.90409892622327
13.9,4883.501889480262,-16.759434150383868,23.956677473698,9.898187140577951
14.0,4881.8199119255505,-16.880116854579,23.95636692041532,9.951000091688357
14.100000000000001,4880.125877150033,-17.00057856553755,23.956054710138776,9.894507520012318
14.200000000000001,4878.41978443951,-17.121275555714114,23.95574427230332,9.927430598573077
14.3,4876.7016289284375,-17.241834575946836,23.955432801514053,9.96218302681119
14.4,4874.971424795904,-17.362247984290327,23.955120240375564,9.985048517794217
14.5,4873.229184122277,-17.482565397398503,23.954806961837697,9.938293455844457
14.600000000000001,4871.474901975495,-17.603077448220127,23.95449515022885,9.877902350331869
14.700000000000001,4869.708556045144,-17.723841069879597,23.95418523337667,0.0
14.8,4867.928071938156,-17.885841069879596,23.95418523337667,0.0
14.9,4866.131387831168,-18.047841069879595,23.95418523337667,0.0
15.0,4864.318503724179,-18.209841069879594,23.95418523337667,0.0
15.100000000000001,4862.489419617191,-18.371841069879594,23.95418523337667,0.0
15.200000000000001,4860.644135510202,-18.533841069879593,23.95418523337667,0.0
15.3,4858.782651403215,-18.69584106987959,23.95418523337667,0.0
15.4,4856.904967296227,-18.85784106987959,23.95418523337667,0.0
15.5,4855.01108318924,-19.01984106987959,23.95418523337667,0.0
15.600000000000001,4853.100999082252,-19.18184106987959,23.95418523337667,0.0
15.700000000000001,4851.174714975265,-19.343841069879588,23.95418523337667,0.0
15.8,4849.232230868277,-19.505841069879587,23.95418523337667,0.0
15.9,4847.273546761289,-19.667841069879586,23.95418523337667,0.0
16.0,4845.298662654302,-19.829841069879585,23.95418523337667,0.0
16.1,4843.307578547314,-19.991841069879584,23.95418523337667,0.0
16.2,4841.300294440326,-20.153841069879583,23.95418523337667,0.0
16.3,4839.276810333338,-20.315841069879582,23.95418523337667,0.0
16.400000000000002,4837.2371262263505,-20.47784106987958,23.95418523337667,0.0
16.5,4835.181242119363,-20.63984106987958,23.95418523337667,0.0
16.6,4833.109158012375,-20.80184106987958,23.95418523337667,0.0
16.7,4831.020873905387,-20.963841069879578,23.95418523337667,0.0
16.8,4828.916389798399,-21.125841069879577,23.95418523337667,0.0
16.900000000000002,4826.795705691411,-21.287841069879576,23.95418523337667,0.0
17.0,4824.658821584423,-21.449841069879575,23.95418523337667,0.0
17.1,4822.505737477435,-21.611841069879574,23.95418523337667,0.0
17.2,4820.336453370447,-21.773841069879573,23.95418523337667,0.0
17.3,4818.150969263459,-21.935841069879572,23.95418523337667,0.0
17.400000000000002,4815.949285156471,-22.09784106987957,23.95418523337667,0.0
17.5,4813.731401049483,-22.25984106987957,23.95418523337667,0.0
17.6,4811.497316942495,-22.42184106987957,23.95418523337667,0.0
17.7,4809.247032835507,-22.58384106987957,23.95418523337667,0.0
17.8,4806.980548728518,-22.745841069879567,23.95418523337667,0.0
17.900000000000002,4804.69786462153,-22.907841069879566,23.95418523337667,0.0
18.0,4802.398980514542,-23.069841069879566,23.95418523337667,0.0
18.1,4800.083896407554,-23.231841069879565,23.95418523337667,0.0
18.2,4797.7526123005655,-23.393841069879564,23.95418523337667,0.0
18.3,4795.405128193577,-23.555841069879563,23.95418523337667,0.0
18.400000000000002,4793.041444086589,-23.71784106987956,23.95418523337667,0.0
18.5,4790.6615599796005,-23.87984106987956,23.95418523337667,0.0
18.6,4788.265475872612,-24.04184106987956,23.95418523337667,0.0
18.7,4785.853191765624,-24.20384106987956,23.95418523337667,0.0
18.8,4783.424707658636,-24.365841069879558,23.95418523337667,0.0
18.900000000000002,4780.980023551649,-24.527841069879557,23.95418523337667,0.0
19.0,4778.519139444661,-24.689841069879556,23.95418523337667,0.0
19.1,4776.042055337673,-24.851841069879555,23.95418523337667,0.0
19.200000000000003,4773.548771230686,-25.013841069879554,23.95418523337667,0.0
19.3,4771.039287123698,-25.175841069879553,23.95418523337667,0.0
19.400000000000002,4768.5136030167105,-25.337841069879552,23.95418523337667,0.0
19.5,4765.971718909723,-25.49984106987955,23.95418523337667,0.0
19.6,4763.413634802735,-25.66184106987955,23.95418523337667,0.0
19.700000000000003,4760.839350695747,-25.82384106987955,23.95418523337667,0.0
19.8,4758.2488665887595,-25.985841069879548,23.95418523337667,0.0
19.900000000000002,4755.642182481772,-26.147841069879547,23.95418523337667,0.0
20.0,4753.019298374784,-26.309841069879546,23.95418523337667,0.0
20.1,4750.380214267796,-26.471841069879545,23.95418523337667,0.0
20.200000000000003,4747.724930160808,-26.633841069879544,23.95418523337667,0.0
20.3,4745.05344605382,-26.795841069879543,23.95418523337667,0.0
20.400000000000002,4742.365761946832,-26.957841069879542,23.95418523337667,0.0
20.5,4739.661877839844,-27.11984106987954,23.95418523337667,0.0
20.6,4736.941793732856,-27.28184106987954,23.95418523337667,0.0
20.700000000000003,4734.205509625868,-27.44384106987954,23.95418523337667,0.0
20.8,4731.45302551888,-27.60584106987954,23.95418523337667,0.0
20.900000000000002,4728.684341411892,-27.767841069879537,23.95418523337667,0.0
21.0,4725.899457304904,-27.929841069879537,23.95418523337667,0.0
21.1,4723.098373197916,-28.091841069879536,23.95418523337667,0.0
21.200000000000003,4720.281089090928,-28.253841069879535,23.95418523337667,0.0
21.3,4717.4476049839395,-28.415841069879534,23.95418523337667,0.0
21.400000000000002,4714.597920876951,-28.577841069879533,23.95418523337667,0.0
21.5,4711.732036769963,-28.73984106987953,23.95418523337667,0.0
21.6,4708.849952662975,-28.90184106987953,23.95418523337667,0.0
21.700000000000003,4705.9516685559865,-29.06384106987953,23.95418523337667,0.0
21.8,4703.037184448998,-29.22584106987953,23.95418523337667,0.0
21.900000000000002,4700.10650034201,-29.387841069879528,23.95418523337667,0.0
22.0,4697.1596162350215,-29.549841069879527,23.95418523337667,0.0
22.1,4694.196532128033,-29.711841069879526,23.95418523337667,0.0
22.200000000000003,4691.217248021046,-29.873841069879525,23.95418523337667,0.0
22.3,4688.221763914058,-30.035841069879524,23.95418523337667,0.0
22.400000000000002,4685.2100798070705,-30.197841069879523,23.95418523337667,0.0
22.5,4682.182195700083,-30.359841069879522,23.95418523337667,0.0
22.6,4679.138111593095,-30.52184106987952,23.95418523337667,0.0
22.700000000000003,4676.077827486108,-30.68384106987952,23.95418523337667,0.0
22.8,4673.00134337912,-30.84584106987952,23.95418523337667,0.0
22.900000000000002,4669.908659272132,-31.007841069879518,23.95418523337667,0.0
23.0,4666.799775165145,-31.169841069879517,23.95418523337667,0.0
23.1,4663.674691058157,-31.331841069879516,23.95418523337667,0.0
23.200000000000003,4660.533406951169,-31.493841069879515,23.95418523337667,0.0
23.3,4657.375922844181,-31.655841069879514,23.95418523337667,0.0
23.400000000000002,4654.2022387371935,-31.817841069879513,23.95418523337667,0.0
23.5,4651.012354630206,-31.979841069879512,23.95418523337667,0.0
23.6,4647.806270523218,-32.14184106987951,23.95418523337667,0.0
23.700000000000003,4644.58398641623,-32.30384106987951,23.95418523337667,0.0
23.8,4641.345502309242,-32.46584106987951,23.95418523337667,0.0
23.900000000000002,4638.090818202254,-32.62784106987951,23.95418523337667,0.0
24.0,4634.819934095266,-32.78984106987951,23.95418523337667,0.0
24.1,4631.532849988278,-32.95184106987951,23.95418523337667,0.0
24.200000000000003,4628.22956588129,-33.113841069879506,23.95418523337667,0.0
24.3,4624.910081774302,-33.275841069879505,23.95418523337667,0.0
24.400000000000002,4621.574397667314,-33.437841069879504,23.95418523337667,0.0
24.5,4618.222513560326,-33.5998410698795,23.95418523337667,0.0
24.6,4614.854429453338,-33.7618410698795,23.95418523337667,0.0
24.700000000000003,4611.470145346349,-33.9238410698795,23.95418523337667,0.0
24.8,4608.069661239361,-34.0858410698795,23.95418523337667,0.0
24.900000000000002,4604.652977132373,-34.2478410698795,23.95418523337667,0.0
25.0,4601.220093025385,-34.4098410698795,23.95418523337667,0.0
25.1,4597.771008918397,-34.5718410698795,23.95418523337667,0.0
25.200000000000003,4594.305724811408,-34.733841069879496,23.95418523337667,0.0
25.3,4590.82424070442,-34.895841069879495,23.95418523337667,0.0
25.400000000000002,4587.326556597432,-35.057841069879494,23.95418523337667,0.0
25.5,4583.812672490443,-35.21984106987949,23.95418523337667,0.0
25.6,4580.282588383455,-35.38184106987949,23.95418523337667,0.0
25.700000000000003,4576.736304276467,-35.54384106987949,23.95418523337667,0.0
