Time[s],Pos[m],V[m/s],mass[kg],T[N]
0.0,5000.0,0.0,24.0,9.876601069169965
0.1,4999.9939576340785,-0.12084722987253645,23.99969012397521,9.862302859609624
0.2,4999.97582759288,-0.24175350580182692,23.999380696553366,9.785545499258934
0.30000000000000004,4999.945590958913,-0.3629790865959137,23.999073677375566,9.894533609547029
0.4,4999.903254499876,-0.48375000526468126,23.99876323872156,9.819742656731359
0.5,4999.848825393253,-0.6048320396524657,23.99845514661602,9.79360473138324
0.6000000000000001,4999.7822826636575,-0.7260224651615723,23.998147874581715,9.976775069491778
0.7000000000000001,4999.703659081399,-0.8464490896325616,23.997834855621335,9.945961224037655
0.8,4999.612986443621,-0.9670035761108994,23.997522803438073,9.909485085377069
0.9,4999.510250784096,-1.0877095252212015,23.997211895685044,9.867550889384464
1.0,4999.3954358190285,-1.2085896876988464,23.996902303607506,10.01222719476831
1.1,4999.268563009288,-1.3288664160817176,23.99658817234507,10.04900860579174
1.2000000000000002,4999.129670217969,-1.448989318596345,23.996272887074557,10.052563749065833
1.3,4998.978765904686,-1.569096855294795,23.995957490262263,9.77001087402085
1.4000000000000001,4998.815791989657,-1.6903813586071244,23.995650958479658,9.961988368846198
1.5,4998.640729653206,-1.810865280270594,23.995338403448514,9.838122733904514
1.6,4998.453593141052,-1.9318648749153982,23.9950297346724,9.957719667141589
1.7000000000000002,4998.254381617208,-2.052365511906579,23.994717313570764,9.893862085262716
1.8,4998.043106749976,-2.173131743846146,23.99440689598567,9.892423866828366
1.9000000000000001,4997.81975498652,-2.2939034363888875,23.99409652352434,9.866207121345418
2.0,4997.584320617262,-2.4147838603522738,23.993786973607207,9.931493506796519
2.1,4997.336811837103,-2.5353916532506617,23.993475375345156,9.809404778590304
2.2,4997.077216862243,-2.656507756528761,23.993167607588102,9.953377226251675
2.3000000000000003,4996.805540306337,-2.7770232715951133,23.992855322729525,9.937594730664415
2.4000000000000004,4996.521808936895,-2.8976040275426747,23.992543533043015,9.931589192205317
2.5,4996.226018267217,-3.0182092764111377,23.992231931778857,9.905810461993136
2.6,4995.91816172718,-3.1389214352046677,23.99192113931627,9.918687535029157
2.7,4995.598236681655,-3.25957938591619,23.991609942838554,10.000955561336694
2.8000000000000003,4995.266263013186,-3.3798938925908937,23.991296165220955,9.922328675444822
2.9000000000000004,4994.922241534624,-3.5005355892142567,23.99098485450332,9.9962713443017
3.0,4994.566171323878,-3.6208685349211747,23.990671223851923,9.998793156185474
3.1,4994.198068371384,-3.741190424137262,23.990357514079275,9.883215566471424
3.2,4993.817909168666,-3.8619935414597633,23.990047430526193,9.967714288824295
3.3000000000000003,4993.425687292197,-3.9824438976422405,23.989734695845666,9.989801715422088
3.4000000000000004,4993.021425010748,-4.102801640646077,23.989421268177345,9.813148257846677
3.5,4992.605090162852,-4.223895229771577,23.989113382969517,10.07933387958619
3.6,4992.17670146328,-4.343878669364706,23.988797146250704,9.8662732752005
3.7,4991.736270038701,-4.464749733749861,23.988487594258007,9.985267390818638
3.8000000000000003,4991.283776336773,-4.585124214195684,23.98817430885305,10.035952492040272
3.9000000000000004,4990.819255778677,-4.705286856209234,23.98785943321502,9.87428274067239
4.0,4990.342685285301,-4.826122922712331,23.98754962992724,9.896467016375095
4.1000000000000005,4989.854035836019,-4.946865973918205,23.987239130613048,9.9601248728035
4.2,4989.353325377542,-5.0673431054568585,23.986926634048654,9.840802100451373
4.3,4988.840542360285,-5.188317151673278,23.986617881208048,9.962700486778276
4.4,4988.315687374696,-5.308782469917526,23.986305303834374,9.961161874788742
4.5,4987.778785563614,-5.4292536615264195,23.98599277473429,9.799837431017439
4.6000000000000005,4987.229803031251,-5.5503968984404,23.985685307150504,9.957054646168016
4.7,4986.6687389748,-5.670884140469222,23.985372906913746,9.896341002485267
4.800000000000001,4986.095613564682,-5.791623972880901,23.985062411553212,9.896506211461736
4.9,4985.510414232469,-5.912362582352878,23.984751911009283,9.997512142095433
5.0,4984.91316212248,-6.032679526581172,23.984438241428148,9.947198910055466
5.1000000000000005,4984.303867856509,-6.153205702895559,23.98412615041278,9.871565615791305
5.2,4983.682505232389,-6.274046690920462,23.983816432374148,9.810625026573096
5.300000000000001,4983.049045831411,-6.395141241159815,23.983508626332103,9.93345077381949
5.4,4982.40350260817,-6.515723133949175,23.98319696666126,10.05504908374597
5.5,4981.745926573512,-6.635797467282122,23.982881491872178,9.878970112602742
5.6000000000000005,4981.076306423475,-6.756605444740969,23.98257154151921,9.961948986227867
5.7,4980.394622802288,-6.877066888776322,23.98225898772369,10.001785093305022
5.800000000000001,4979.700901369166,-6.99736168271214,23.98194518407972,9.957628473221261
5.9,4978.9951412776345,-7.117840057766815,23.981632765839272,10.0048402947257
6.0,4978.277343219059,-7.2381210227433055,23.98131886633908,10.00662974324517
6.1000000000000005,4977.547517464384,-7.358393979700493,23.981004910695365,10.001860259517503
6.2,4976.80566344689,-7.478686279220296,23.980691104693076,9.8852939895437
6.300000000000001,4976.051755922329,-7.599464123146777,23.980380955929963,10.01726846210928
6.4,4975.285798157447,-7.719691083240586,23.980066666498956,9.994119966546991
6.5,4974.507812897276,-7.840014029345679,23.97975310334653,9.995059580317127
6.6000000000000005,4973.717795565663,-7.960332512057044,23.97943951071394,9.938385649012423
6.7,4972.915734595739,-8.080886796607409,23.979127696212558,9.923746892999176
6.800000000000001,4972.101615171885,-8.201501590913693,23.978816340998684,9.85418717740256
6.9,4971.2754197909335,-8.322405939795265,23.97850716820445,9.987864905681347
7.0,4970.437161876319,-8.44275226177361,23.97819380130308,10.05894935824594
7.1000000000000005,4969.586884179583,-8.562801580920313,23.977878204143806,10.040245073267501
7.2,4968.724597678184,-8.68292835535623,23.977563193827056,9.996535452965375
7.300000000000001,4967.850289412077,-8.803236875898309,23.977249554889312,10.017207925338859
7.4,4966.963954632072,-8.923458632924882,23.976935267357632,9.873713084303274
7.5,4966.0655677799705,-9.044278320430216,23.976625481942683,10.072020376634065
7.6000000000000005,4965.155140340377,-9.16427037916076,23.976309474683298,10.04818907444763
7.7,4964.23270875279,-9.28436128073833,23.975994215125386,9.8238232921665
7.800000000000001,4963.298221312521,-9.405387436863597,23.975685994990876,9.861817042743253
7.9,4962.351639206436,-9.526254596368648,23.97537658281142,9.952453607014135
8.0,4961.392989313116,-9.646743179921453,23.97506432693118,9.94809612492722
8.1,4960.422289679713,-9.767249398113679,23.974752207765906,10.068138987682259
8.200000000000001,4959.439564486986,-9.887254364218503,23.97443632228418,9.942162813253946
8.3,4958.444812552063,-10.00778424429894,23.97412438927516,9.928682954474256
8.4,4957.438004844752,-10.128369812228497,23.973812879193524,9.942488720083954
8.5,4956.419141486923,-10.248897254418253,23.973500935959255,9.97288690644657
8.6,4955.388231751867,-10.3692973561988,23.97318803898907,10.020120429563905
8.700000000000001,4954.345291885191,-10.48949988598071,23.972873660078257,9.839801129203822
8.8,4953.290294183587,-10.61045405798571,23.972564938642886,9.783681409256111
8.9,4952.223189386124,-10.73164180417299,23.97225797795047,9.89045772943748
9.0,4951.143988111174,-10.852383605829761,23.971947667176238,9.993951411636194
9.1,4950.052734269363,-10.972693139488008,23.97163410931218,10.005208314571332
9.200000000000001,4948.9494518494375,-11.092955167937378,23.971320198265452,9.940656058841371
9.3,4947.834129789401,-11.213485942858988,23.971008312530497,9.865419946255699
9.4,4946.706738985568,-11.33433004523587,23.970698787310795,9.964003541695108
9.5,4945.567284361601,-11.45476234375016,23.97038616905408,10.025248550112023
9.600000000000001,4944.415799310141,-11.574938593996103,23.9700716292497,10.017041320194052
9.700000000000001,4943.252294949107,-11.695148535356923,23.969757346945215,9.873857288694541
9.8,4942.076739753432,-11.815955289417134,23.96944755700589,9.927903081133142
9.9,4940.889115182959,-11.936536030315821,23.969136071392594,9.784039597844773
10.0,4939.6894025549,-12.057716443739263,23.968829099462095,10.006351555426361
10.100000000000001,4938.477618287261,-12.177968817909322,23.968515152546455,9.862028087826538
10.200000000000001,4937.253778702399,-12.298822790790126,23.96820573374551,10.077890562054264
10.3,4936.017898778205,-12.418775600654328,23.96788954231044,9.930255042255448
10.4,4934.769992801883,-12.539343836012952,23.967577982904924,9.96199126383605
10.5,4933.510036649669,-12.659779117928336,23.96726542778295,9.93896620354475
10.600000000000001,4932.238032192885,-12.780309927832855,23.966953595066805,9.918115500250742
10.700000000000001,4930.953970332164,-12.90092719703173,23.966642416536548,9.925991289240038
10.8,4929.657848414477,-13.02151106703284,23.966330990905274,9.869368607549717
10.9,4928.349656323631,-13.142330661200958,23.966021341797255,9.935177024477149
11.0,4927.029396029616,-13.262875129244957,23.96570962796571,9.927020371752091
11.100000000000001,4925.697079614007,-13.38345309321055,23.965398170047212,9.885515845340938
11.200000000000001,4924.3526967695825,-13.50420370630697,23.965088014323424,9.91724929239151
11.3,4922.996245511364,-13.624821368518537,23.964776862970233,9.925660105093563
11.4,4921.627734268632,-13.745403396413364,23.964465447729783,10.062710264080376
11.5,4920.247193444725,-13.86541298952858,23.964149732572977,9.876110218449393
11.600000000000001,4918.854612755661,-13.986200702929121,23.96383987194851,9.950976938148107
11.700000000000001,4917.449968942806,-14.106675464009385,23.963527662398405,9.880511533249384
11.8,4916.03326297813,-14.227443740610841,23.96321766368373,9.890161264368635
11.9,4914.604482225927,-14.348171214366905,23.962907362211016,9.833827980777743
12.0,4913.163616998703,-14.469133242052761,23.962598828181765,9.879956222034592
12.100000000000001,4911.710665220263,-14.589902237864884,23.962288846889845,9.98772939280712
12.200000000000001,4910.245659057184,-14.710220932862725,23.961975484240156,9.896169033924739
12.3,4908.768601946349,-14.83092119463228,23.961664994275093,10.000126286136407
12.4,4907.279496528694,-14.9511870673944,23.961351242675807,9.832869501201134
12.5,4905.778329649416,-15.072150430096379,23.96104273871863,9.95104788517789
12.600000000000001,4904.265091121026,-15.192620047528298,23.960730526942577,9.939036010961171
12.700000000000001,4902.739803151352,-15.313139255965122,23.96041869203624,9.951069186354252
12.8,4901.202465798902,-15.4336077028327,23.960106479591868,10.001709705611924
12.9,4899.6530921965905,-15.553864252276608,23.95979267831317,9.93457966388376
13.0,4898.091678957654,-15.674400436551045,23.95948098322367,9.82445836900967
13.100000000000001,4896.518189146328,-15.795395702047266,23.959172743163776,9.850468064490236
13.200000000000001,4894.932605262796,-15.916281880202868,23.958863687055832,9.796612739238531
13.3,4893.334921548746,-16.03739231336977,23.958556320645993,9.84182851684535
13.4,4891.725136253937,-16.158313494563295,23.958247535601814,9.92744487541542
13.5,4890.103276735462,-16.278876785169093,23.957936064364617,9.889090835362182
13.600000000000001,4888.469352910338,-16.39959962822279,23.957625796476364,9.863178369355213
13.700000000000001,4886.823351419612,-16.520430097678133,23.957316341585607,9.891111734602092
13.8,4885.165272738399,-16.641143437451152,23.957006010292115,9.862655479169531
13.9,4883.495116810872,-16.761975024459453,23.956696571806916,9.926626294659707
14.0,4881.812891102691,-16.88253904938544,23.956385126252496,9.889685886626093
14.100000000000001,4880.1186013089555,-17.003256736209313,23.956074839694647,9.959945897436922
14.200000000000001,4878.412254437741,-17.123680597693042,23.955762348745562,9.848588762411698
14.3,4876.69384196505,-17.24456876774431,23.955453351600276,9.992946762786843
14.4,4874.963370832638,-17.3648537894887,23.95513982525684,9.8580906925688
14.5,4873.22084307748,-17.485701225128466,23.95483052999074,9.994482505422665
14.600000000000001,4871.466259074112,-17.605978751205814,23.954516955463742,9.91498969424252
14.700000000000001,4869.6996307528525,-17.726587584384408,23.95420587500491,0.0
14.8,4867.918871994414,-17.888587584384407,23.95420587500491,0.0
14.9,4866.121913235976,-18.050587584384406,23.95420587500491,0.0
15.0,4864.308754477537,-18.212587584384405,23.95420587500491,0.0
15.100000000000001,4862.479395719099,-18.374587584384404,23.95420587500491,0.0
15.200000000000001,4860.63383696066,-18.536587584384403,23.95420587500491,0.0
15.3,4858.772078202222,-18.698587584384402,23.95420587500491,0.0
15.4,4856.894119443783,-18.8605875843844,23.95420587500491,0.0
15.5,4854.999960685344,-19.0225875843844,23.95420587500491,0.0
15.600000000000001,4853.089601926906,-19.1845875843844,23.95420587500491,0.0
15.700000000000001,4851.163043168467,-19.346587584384398,23.95420587500491,0.0
15.8,4849.220284410028,-19.508587584384397,23.95420587500491,0.0
15.9,4847.26132565159,-19.670587584384396,23.95420587500491,0.0
16.0,4845.286166893151,-19.832587584384395,23.95420587500491,0.0
16.1,4843.294808134712,-19.994587584384394,23.95420587500491,0.0
16.2,4841.287249376273,-20.156587584384393,23.95420587500491,0.0
16.3,4839.263490617835,-20.318587584384392,23.95420587500491,0.0
16.400000000000002,4837.223531859396,-20.48058758438439,23.95420587500491,0.0
16.5,4835.167373100957,-20.64258758438439,23.95420587500491,0.0
16.6,4833.095014342519,-20.80458758438439,23.95420587500491,0.0
16.7,4831.006455584081,-20.96658758438439,23.95420587500491,0.0
16.8,4828.901696825643,-21.128587584384388,23.95420587500491,0.0
16.900000000000002,4826.780738067205,-21.290587584384387,23.95420587500491,0.0
17.0,4824.643579308767,-21.452587584384386,23.95420587500491,0.0
17.1,4822.490220550329,-21.614587584384385,23.95420587500491,0.0
17.2,4820.32066179189,-21.776587584384384,23.95420587500491,0.0
17.3,4818.134903033452,-21.938587584384383,23.95420587500491,0.0
17.400000000000002,4815.932944275014,-22.10058758438438,23.95420587500491,0.0
17.5,4813.714785516576,-22.26258758438438,23.95420587500491,0.0
17.6,4811.480426758138,-22.42458758438438,23.95420587500491,0.0
17.7,4809.229867999699,-22.58658758438438,23.95420587500491,0.0
17.8,4806.963109241261,-22.748587584384378,23.95420587500491,0.0
17.900000000000002,4804.680150482823,-22.910587584384377,23.95420587500491,0.0
18.0,4802.380991724384,-23.072587584384376,23.95420587500491,0.0
18.1,4800.065632965946,-23.234587584384375,23.95420587500491,0.0
18.2,4797.734074207508,-23.396587584384374,23.95420587500491,0.0
18.3,4795.386315449069,-23.558587584384373,23.95420587500491,0.0
18.400000000000002,4793.022356690631,-23.720587584384372,23.95420587500491,0.0
18.5,4790.642197932192,-23.88258758438437,23.95420587500491,0.0
18.6,4788.245839173754,-24.04458758438437,23.95420587500491,0.0
18.7,4785.833280415315,-24.20658758438437,23.95420587500491,0.0
18.8,4783.404521656877,-24.36858758438437,23.95420587500491,0.0
18.900000000000002,4780.959562898438,-24.530587584384367,23.95420587500491,0.0
19.0,4778.498404139999,-24.692587584384366,23.95420587500491,0.0
19.1,4776.021045381561,-24.854587584384365,23.95420587500491,0.0
19.200000000000003,4773.527486623122,-25.016587584384364,23.95420587500491,0.0
19.3,4771.017727864683,-25.178587584384363,23.95420587500491,0.0
19.400000000000002,4768.491769106245,-25.340587584384362,23.95420587500491,0.0
19.5,4765.949610347806,-25.50258758438436,23.95420587500491,0.0
19.6,4763.391251589367,-25.66458758438436,23.95420587500491,0.0
19.700000000000003,4760.816692830928,-25.82658758438436,23.95420587500491,0.0
19.8,4758.2259340724895,-25.98858758438436,23.95420587500491,0.0
19.900000000000002,4755.618975314051,-26.150587584384358,23.95420587500491,0.0
20.0,4752.995816555612,-26.312587584384357,23.95420587500491,0.0
20.1,4750.356457797174,-26.474587584384356,23.95420587500491,0.0
20.200000000000003,4747.700899038736,-26.636587584384355,23.95420587500491,0.0
20.3,4745.029140280298,-26.798587584384354,23.95420587500491,0.0
20.400000000000002,4742.34118152186,-26.960587584384353,23.95420587500491,0.0
20.5,4739.637022763422,-27.122587584384352,23.95420587500491,0.0
20.6,4736.916664004983,-27.28458758438435,23.95420587500491,0.0
20.700000000000003,4734.180105246545,-27.44658758438435,23.95420587500491,0.0
20.8,4731.427346488107,-27.60858758438435,23.95420587500491,0.0
20.900000000000002,4728.658387729669,-27.770587584384348,23.95420587500491,0.0
21.0,4725.873228971231,-27.932587584384347,23.95420587500491,0.0
21.1,4723.071870212792,-28.094587584384346,23.95420587500491,0.0
21.200000000000003,4720.254311454354,-28.256587584384345,23.95420587500491,0.0
21.3,4717.420552695916,-28.418587584384344,23.95420587500491,0.0
21.400000000000002,4714.5705939374775,-28.580587584384343,23.95420587500491,0.0
21.5,4711.704435179039,-28.742587584384342,23.95420587500491,0.0
21.6,4708.822076420601,-28.90458758438434,23.95420587500491,0.0
21.700000000000003,4705.923517662162,-29.06658758438434,23.95420587500491,0.0
21.8,4703.008758903724,-29.22858758438434,23.95420587500491,0.0
21.900000000000002,4700.077800145285,-29.39058758438434,23.95420587500491,0.0
22.0,4697.130641386847,-29.552587584384337,23.95420587500491,0.0
22.1,4694.167282628408,-29.714587584384336,23.95420587500491,0.0
22.200000000000003,4691.18772386997,-29.876587584384335,23.95420587500491,0.0
22.3,4688.191965111531,-30.038587584384334,23.95420587500491,0.0
22.400000000000002,4685.180006353093,-30.200587584384333,23.95420587500491,0.0
22.5,4682.151847594654,-30.362587584384332,23.95420587500491,0.0
22.6,4679.107488836215,-30.52458758438433,23.95420587500491,0.0
22.700000000000003,4676.046930077777,-30.68658758438433,23.95420587500491,0.0
22.8,4672.970171319338,-30.84858758438433,23.95420587500491,0.0
22.900000000000002,4669.877212560899,-31.01058758438433,23.95420587500491,0.0
23.0,4666.768053802461,-31.172587584384328,23.95420587500491,0.0
23.1,4663.642695044022,-31.334587584384327,23.95420587500491,0.0
23.200000000000003,4660.501136285583,-31.496587584384326,23.95420587500491,0.0
23.3,4657.343377527144,-31.658587584384325,23.95420587500491,0.0
23.400000000000002,4654.169418768705,-31.820587584384324,23.95420587500491,0.0
23.5,4650.979260010266,-31.982587584384323,23.95420587500491,0.0
23.6,4647.772901251828,-32.144587584384325,23.95420587500491,0.0
23.700000000000003,4644.55034249339,-32.306587584384324,23.95420587500491,0.0
23.8,4641.311583734952,-32.46858758438432,23.95420587500491,0.0
23.900000000000002,4638.056624976514,-32.63058758438432,23.95420587500491,0.0
24.0,4634.785466218076,-32.79258758438432,23.95420587500491,0.0
24.1,4631.498107459638,-32.95458758438432,23.95420587500491,0.0
24.200000000000003,4628.1945487012,-33.11658758438432,23.95420587500491,0.0
24.3,4624.874789942762,-33.27858758438432,23.95420587500491,0.0
24.400000000000002,4621.5388311843235,-33.44058758438432,23.95420587500491,0.0
24.5,4618.186672425885,-33.60258758438432,23.95420587500491,0.0
24.6,4614.818313667447,-33.764587584384316,23.95420587500491,0.0
24.700000000000003,4611.433754909009,-33.926587584384315,23.95420587500491,0.0
24.8,4608.03299615057,-34.088587584384314,23.95420587500491,0.0
24.900000000000002,4604.616037392132,-34.25058758438431,23.95420587500491,0.0
25.0,4601.182878633694,-34.41258758438431,23.95420587500491,0.0
25.1,4597.733519875255,-34.57458758438431,23.95420587500491,0.0
25.200000000000003,4594.267961116817,-34.73658758438431,23.95420587500491,0.0
25.3,4590.786202358378,-34.89858758438431,23.95420587500491,0.0
25.400000000000002,4587.28824359994,-35.06058758438431,23.95420587500491,0.0
25.5,4583.7740848415015,-35.22258758438431,23.95420587500491,0.0
25.6,4580.243726083063,-35.384587584384306,23.95420587500491,0.0
25.700000000000003,4576.697167324624,-35.546587584384305,23.95420587500491,0.0
