Time[s],Pos[m],V[m/s],mass[kg],T[N]
0.0,5000.0,0.0,24.0,9.929634157046191
0.1,4999.993968682734,-0.12062625581228537,23.99968846007461,9.888616216107886
0.2,4999.975866221151,-0.24142288706839754,23.99937820707742,9.932588828158584
0.30000000000000004,4999.945693284352,-0.36203575932495535,23.99906657444992,9.876307028228853
0.4,4999.903447361267,-0.48288261381533737,23.998756707650593,9.96913982353132
0.5,4999.849136120636,-0.6033421085708837,23.99844392824425,9.873033583405075
0.6000000000000001,4999.782758933995,-0.7242015357386425,23.99813416414848,10.025925704173707
0.7000000000000001,4999.704327686467,-0.8444233235462679,23.997819603098552,9.922920580210725
0.8,4999.613852826003,-0.9650737963347912,23.99750827381005,9.915003436849213
0.9,4999.511311295491,-1.0857567246262831,23.997197192920044,9.837491103991345
1.0,4999.3966853485035,-1.2067621272583524,23.99688854396117,9.797941946471797
1.1,4999.269950647069,-1.3279318142512984,23.996581135847766,9.99077244966678
1.2000000000000002,4999.13113918218,-1.4482973928873228,23.99626767772289,9.949125652117813
1.3,4998.980282508779,-1.5688359852339546,23.995955526256445,9.878274391889025
1.4000000000000001,4998.817357239816,-1.6896693053955159,23.99564559773155,9.892525403830799
1.5,4998.642351634949,-1.8104427030840917,23.99533522208452,9.962084427050574
1.6,4998.45528321138,-1.930925678139913,23.995022664039574,10.015379445882958
1.7000000000000002,4998.256177622876,-2.0511860008510725,23.994708433876006,9.942878794844042
1.8,4998.045030921666,-2.171747933551593,23.99439647840323,9.93374427796086
1.9000000000000001,4997.821826150638,-2.2923473973750097,23.994084809523766,9.949985959514812
2.0,4997.586564844663,-2.4128786321900932,23.99377263106538,9.90672195147775
2.1,4997.339241426433,-2.533589643287088,23.993461810005023,9.894882881033524
2.2,4997.079844466669,-2.654349463047506,23.993151360392705,9.78439629514884
2.3000000000000003,4996.8083485268035,-2.775569247299674,23.992844377270913,9.958482693009275
2.4000000000000004,4996.52476691373,-2.8960629240860394,23.99253193222952,9.938508947764763
2.5,4996.229131797475,-3.0166393112752083,23.992220113859666,9.83116647139295
2.6,4995.92141669896,-3.1376625712263206,23.991911663334644,9.9395279078497
2.7,4995.601621883895,-3.2582336403199497,23.991599812995158,9.89175849348079
2.8000000000000003,4995.269760033314,-3.379003282401944,23.99128946140976,9.90196826997968
2.9000000000000004,4994.925823373021,-3.4997298343926104,23.99097878949504,9.809803230406557
3.0,4994.569794875816,-3.620840022259471,23.990671009236653,9.872725977359005
3.1,4994.20166850017,-3.7416874021025355,23.990361254791953,9.93599224806676
3.2,4993.821470598989,-3.8622705318060317,23.990049515382957,9.891260085536615
3.3000000000000003,4993.4292050886015,-3.9830395870488995,23.98973917943499,9.818457248890796
3.4000000000000004,4993.024847525483,-4.104111587726768,23.989431127658822,9.975650196923587
3.5,4992.6084155518165,-4.224527795184047,23.989118143991053,9.942559581532814
3.6,4992.179935087466,-4.345081402002504,23.98880619853352,9.8895736559304
3.7,4991.739388245401,-4.4658553504310206,23.988495915496884,10.006283195797227
3.8000000000000003,4991.286788361514,-4.586142236323078,23.98818197072601,9.870401441718439
3.9000000000000004,4990.822131493443,-4.706995036562228,23.987872289213065,9.945095127597995
4.0,4990.345404941095,-4.827535920517093,23.987560264203374,9.914657065960485
4.1000000000000005,4989.856617982709,-4.948203157852554,23.987249194180677,9.83828854802759
4.2,4989.355748408689,-5.069188234591791,23.986940520202182,9.877440710171808
4.3,4988.842788514596,-5.19000955860001,23.986630617833853,9.96652376788684
4.4,4988.317765084178,-5.310458959474076,23.986317920505638,9.834237886426308
4.5,4987.7806691652395,-5.431459331391546,23.986009373615694,9.892680872872168
4.6000000000000005,4987.231485418309,-5.552215518278248,23.98569899309086,9.954593961597093
4.7,4986.670238985736,-5.672713043092931,23.985386670057498,9.919631010755165
4.800000000000001,4986.096935539255,-5.793355797097204,23.985075443978456,9.919362440799736
4.9,4985.511567788219,-5.913999134206044,23.984764226325733,9.951124965132806
5.0,4984.914142351756,-6.034509505041349,23.984452012131314,9.941263507784033
5.1000000000000005,4984.304663849393,-6.155060452364695,23.98414010733779,10.03069052630381
5.2,4983.683148922361,-6.275237996811169,23.983825396792692,9.969576036154276
5.300000000000001,4983.049603527441,-6.395669811242093,23.98351260370028,9.998102753964176
5.4,4982.404020925388,-6.515982138948418,23.983198915588837,9.956235657535725
5.5,4981.7463983893285,-6.636468492116941,23.98288654104765,9.936418751382302
5.6000000000000005,4981.076723113484,-6.757036935008362,23.982574788257214,9.967081391229698
5.7,4980.394997413026,-6.877476983829495,23.9822620734337,10.022228022811326
5.800000000000001,4979.701239232261,-6.997686540141346,23.98194762839765,10.002269071056732
5.9,4978.995455961981,-7.117978774493629,23.981633809568994,9.906443803929038
6.0,4978.277623516495,-7.238670045993128,23.981322997235452,10.043643060625355
6.1000000000000005,4977.5477505763165,-7.3587886658474755,23.98100788030765,9.863797872154368
6.2,4976.805828303924,-7.479656693546851,23.98069840598014,9.84693370970353
6.300000000000001,4976.051815739076,-7.600594515235971,23.98038946076174,9.855222934407108
6.4,4975.285711146859,-7.72149724078118,23.980080255470874,9.928618686742931
6.5,4974.507531612199,-7.842093362773611,23.979768747405622,9.888747419681819
6.6000000000000005,4973.717284178639,-7.9628552195032505,23.979458490291954,9.874394908713047
6.7,4972.91495759339,-8.083676396802788,23.979148683484926,9.826177981887614
6.800000000000001,4972.100538862998,-8.204698123226411,23.978840389472584,9.930502482286686
6.9,4971.274039739944,-8.32528424817178,23.97852882230369,9.943764875677374
7.0,4970.435484796798,-8.445814524825497,23.978216839030342,9.927159061732294
7.1000000000000005,4969.584873390248,-8.56641351655714,23.97790537676048,9.880234584999465
7.2,4968.722192326388,-8.687207671855969,23.977595386734986,9.906229945467308
7.300000000000001,4967.847437294441,-8.807892877815203,23.977284581111203,9.898928790070562
7.4,4966.960612246147,-8.928607998923688,23.976974004559445,9.907419402704782
7.5,4966.061717483073,-9.049287173274902,23.97666316161672,9.91927646768266
7.6000000000000005,4965.150757301996,-9.169916358758133,23.976351946661385,9.968937609186062
7.7,4964.227744585586,-9.290337879035084,23.976039173599467,9.873880183132448
7.800000000000001,4963.2926699206755,-9.411155330484753,23.975729382941832,10.020287913332123
7.9,4962.345544069978,-9.5313615921176,23.97541499877626,9.858753846512679
8.0,4961.386363932788,-9.652241063261874,23.975105682703862,9.921469708200583
8.1,4960.415108954494,-9.772858413073042,23.974794398936123,9.874128250895353
8.200000000000001,4959.431782394826,-9.893672691589515,23.97448460049542,9.819067817437757
8.3,4958.436362950686,-10.014716103496516,23.974176529562808,9.787060387451168
8.4,4957.428832516216,-10.135892498759286,23.97386946285575,9.977693613642824
8.5,4956.40922422725,-10.256273189980599,23.973556415076263,9.930947172863968
8.6,4955.377568146667,-10.376848331953372,23.97324483395531,9.864611300118588
8.700000000000001,4954.333840743289,-10.4976996470501,23.97293533410669,9.95713586791112
8.8,4953.278047532845,-10.618164471620798,23.972622931321617,9.922692636831863
8.9,4952.210200683077,-10.738772434142518,23.972311609184782,9.829760375737472
9.0,4951.130273680518,-10.859767529121243,23.972003202775678,9.967054547110958
9.1,4950.038275831443,-10.980189361984717,23.97169048879439,9.987454286882011
9.200000000000001,4948.934240081203,-11.100525552044804,23.971377134776088,10.005249014953579
9.3,4947.818174450882,-11.220786963268157,23.971063222452397,9.79895569497673
9.4,4946.6900396767405,-11.341908432171572,23.970755782532873,10.061056861735915
9.5,4945.549847453424,-11.461935942029719,23.970440119251176,9.894984564866373
9.600000000000001,4944.397617865396,-11.582655729428005,23.97012966644855,9.90677352830838
9.700000000000001,4943.233318784476,-11.703325799645809,23.969818843769982,9.970231853659767
9.8,4942.056965960577,-11.823730587864945,23.969506030101453,9.937505552601106
9.9,4940.868565858285,-11.944271368086001,23.969194243212886,9.946863118604377
10.0,4939.668113656951,-12.064772568532538,23.968882162732896,10.036608409710094
10.100000000000001,4938.455630083962,-12.184898799571727,23.968567266515603,9.926056223112466
10.200000000000001,4937.231110853265,-12.305485724694256,23.968255838847043,10.03316356729299
10.3,4935.994555300738,-12.42562523421541,23.967941050710866,9.987957498449942
10.4,4934.745976394138,-12.54595280698496,23.967627680904418,9.925019579182123
10.5,4933.4853516276125,-12.666542433849973,23.967316285760315,10.015888792075756
10.600000000000001,4932.212686882369,-12.786752379700326,23.96700203961613,9.867404447595082
10.700000000000001,4930.927970192839,-12.90758132225375,23.966692452133167,9.952258362123668
10.8,4929.631188338265,-13.028055679055377,23.966380202378687,9.916937585517163
10.9,4928.322351706181,-13.14867687309783,23.966069060805225,9.885566088756692
11.0,4927.001446436514,-13.269428431263918,23.965758903505062,9.875827168282829
11.100000000000001,4925.668464005864,-13.390220092940222,23.96544905176123,9.97009786107383
11.200000000000001,4924.323422103898,-13.51061785587156,23.965136242296683,9.873189020729056
11.3,4922.9663202339025,-13.631419455282574,23.964826473324106,9.900326686003115
11.4,4921.59714389262,-13.752107281129405,23.964515852913692,9.875975620735504
11.5,4920.2158937148315,-13.872896185820418,23.9642059965122,9.879076888648598
11.600000000000001,4918.822565320285,-13.993671616232074,23.963896042809157,9.89314341876011
11.700000000000001,4917.417162344326,-14.114387813829234,23.963585647772057,9.847191960638575
11.8,4915.999678187494,-14.235295234513439,23.963276694451096,9.963593847298258
11.9,4914.57012760285,-14.355716367969539,23.962964089048448,10.028717022948763
12.0,4913.128548520397,-14.475865189509712,23.96264944042155,9.93007033616269
12.100000000000001,4911.67493399966,-14.596425135416426,23.96233788681114,9.955644090548887
12.200000000000001,4910.209268847559,-14.716877816346456,23.962025530830232,9.85095424674945
12.3,4908.731536609306,-14.837766860324365,23.961716459468434,9.886636185205292
12.4,4907.2417229388475,-14.958506459822317,23.96140626859425,9.975716022253865
12.5,4905.739853923497,-15.07887375653778,23.961093282861224,9.970245196736405
12.600000000000001,4904.225947064051,-15.199263341850946,23.960780468774058,9.883776755986359
12.700000000000001,4902.699983229334,-15.320013263509422,23.960470367613787,9.942202657042857
12.8,4901.161956621394,-15.440518805252303,23.960158433354678,9.884134882596763
12.9,4899.611867368617,-15.561266161305857,23.959848320958272,9.908555239116106
13.0,4898.049708503075,-15.681911060102385,23.95953744237895,9.919000836523898
13.100000000000001,4896.4754873543425,-15.802511824916674,23.959226236071476,9.932722217729477
13.200000000000001,4894.889209019527,-15.923054781530942,23.95891459925891,9.973222144452436
13.3,4893.290884868038,-16.043428157629897,23.958601691770713,10.037094444756134
13.4,4891.680536735961,-16.163534392133208,23.958286780304185,9.885551442508289
13.5,4890.058146381265,-16.28427261276888,23.957976623463544,9.967664141394106
13.600000000000001,4888.423699368181,-16.404667558408143,23.95766389035638,9.928724121536069
13.700000000000001,4886.777204760777,-16.525224499865224,23.957352378983135,10.001322059375479
13.8,4885.118669637797,-16.645477868603564,23.957038589866745,9.949332227272393
13.9,4883.44809835455,-16.765947706142363,23.956726431919055,9.92962941034275
14.0,4881.7654760024025,-16.886499246967777,23.95641489214259,9.827147710431905
14.100000000000001,4880.070777133741,-17.007478038268488,23.956106567705245,9.966755382050296
14.200000000000001,4878.364009550822,-17.1278735296075,23.955793863110188,9.921981310854148
14.3,4876.645193100697,-17.24845538318748,23.955482563291035,9.943547751764637
14.4,4874.914322993523,-17.368946670205638,23.955170586829897,9.856998659981405
14.5,4873.1713857197155,-17.489798717400728,23.954861325826062,9.838366625525216
14.600000000000001,4871.416359378729,-17.610728014132476,23.954552649397908,9.926849349231546
14.700000000000001,4869.649258603564,-17.731287399362543,23.954241196845203,0.0
14.8,4867.868029863627,-17.893287399362542,23.954241196845203,0.0
14.9,4866.070601123691,-18.05528739936254,23.954241196845203,0.0
15.0,4864.256972383754,-18.21728739936254,23.954241196845203,0.0
15.100000000000001,4862.4271436438175,-18.37928739936254,23.954241196845203,0.0
15.200000000000001,4860.581114903881,-18.54128739936254,23.954241196845203,0.0
15.3,4858.718886163944,-18.703287399362537,23.954241196845203,0.0
15.4,4856.840457424008,-18.865287399362536,23.954241196845203,0.0
15.5,4854.945828684071,-19.027287399362535,23.954241196845203,0.0
15.600000000000001,4853.034999944135,-19.189287399362534,23.954241196845203,0.0
15.700000000000001,4851.107971204199,-19.351287399362533,23.954241196845203,0.0
15.8,4849.164742464263,-19.513287399362532,23.954241196845203,0.0
15.9,4847.205313724327,-19.67528739936253,23.954241196845203,0.0
16.0,4845.2296849843915,-19.83728739936253,23.954241196845203,0.0
16.1,4843.2378562444555,-19.99928739936253,23.954241196845203,0.0
16.2,4841.22982750452,-20.16128739936253,23.954241196845203,0.0
16.3,4839.205598764584,-20.323287399362528,23.954241196845203,0.0
16.400000000000002,4837.1651700246475,-20.485287399362527,23.954241196845203,0.0
16.5,4835.1085412847115,-20.647287399362526,23.954241196845203,0.0
16.6,4833.035712544775,-20.809287399362525,23.954241196845203,0.0
16.7,4830.946683804839,-20.971287399362524,23.954241196845203,0.0
16.8,4828.841455064903,-21.133287399362523,23.954241196845203,0.0
16.900000000000002,4826.720026324967,-21.295287399362522,23.954241196845203,0.0
17.0,4824.582397585031,-21.45728739936252,23.954241196845203,0.0
17.1,4822.428568845095,-21.61928739936252,23.954241196845203,0.0
17.2,4820.258540105158,-21.78128739936252,23.954241196845203,0.0
17.3,4818.072311365222,-21.943287399362518,23.954241196845203,0.0
17.400000000000002,4815.869882625286,-22.105287399362517,23.954241196845203,0.0
17.5,4813.651253885349,-22.267287399362516,23.954241196845203,0.0
17.6,4811.416425145413,-22.429287399362515,23.954241196845203,0.0
17.7,4809.165396405477,-22.591287399362514,23.954241196845203,0.0
17.8,4806.89816766554,-22.753287399362513,23.954241196845203,0.0
17.900000000000002,4804.614738925604,-22.915287399362512,23.954241196845203,0.0
18.0,4802.315110185667,-23.07728739936251,23.954241196845203,0.0
18.1,4799.999281445731,-23.23928739936251,23.954241196845203,0.0
18.2,4797.667252705794,-23.40128739936251,23.954241196845203,0.0
18.3,4795.319023965858,-23.56328739936251,23.954241196845203,0.0
18.400000000000002,4792.954595225921,-23.725287399362507,23.954241196845203,0.0
18.5,4790.573966485985,-23.887287399362506,23.954241196845203,0.0
18.6,4788.177137746048,-24.049287399362505,23.954241196845203,0.0
18.7,4785.7641090061115,-24.211287399362504,23.954241196845203,0.0
18.8,4783.334880266175,-24.373287399362503,23.954241196845203,0.0
18.900000000000002,4780.889451526238,-24.535287399362502,23.954241196845203,0.0
19.0,4778.427822786302,-24.6972873993625,23.954241196845203,0.0
19.1,4775.949994046367,-24.8592873993625,23.954241196845203,0.0
19.200000000000003,4773.455965306431,-25.0212873993625,23.954241196845203,0.0
19.3,4770.945736566495,-25.1832873993625,23.954241196845203,0.0
19.400000000000002,4768.419307826559,-25.345287399362498,23.954241196845203,0.0
19.5,4765.876679086623,-25.507287399362497,23.954241196845203,0.0
19.6,4763.317850346687,-25.669287399362496,23.954241196845203,0.0
19.700000000000003,4760.742821606751,-25.831287399362495,23.954241196845203,0.0
19.8,4758.151592866815,-25.993287399362494,23.954241196845203,0.0
19.900000000000002,4755.544164126879,-26.155287399362493,23.954241196845203,0.0
20.0,4752.920535386943,-26.317287399362492,23.954241196845203,0.0
20.1,4750.280706647007,-26.47928739936249,23.954241196845203,0.0
20.200000000000003,4747.624677907071,-26.64128739936249,23.954241196845203,0.0
20.3,4744.952449167135,-26.80328739936249,23.954241196845203,0.0
20.400000000000002,4742.264020427198,-26.965287399362488,23.954241196845203,0.0
20.5,4739.559391687262,-27.127287399362487,23.954241196845203,0.0
20.6,4736.838562947326,-27.289287399362486,23.954241196845203,0.0
20.700000000000003,4734.10153420739,-27.451287399362485,23.954241196845203,0.0
20.8,4731.348305467453,-27.613287399362484,23.954241196845203,0.0
20.900000000000002,4728.578876727517,-27.775287399362483,23.954241196845203,0.0
21.0,4725.793247987581,-27.937287399362482,23.954241196845203,0.0
21.1,4722.991419247644,-28.09928739936248,23.954241196845203,0.0
21.200000000000003,4720.173390507708,-28.26128739936248,23.954241196845203,0.0
21.3,4717.339161767772,-28.42328739936248,23.954241196845203,0.0
21.400000000000002,4714.488733027835,-28.58528739936248,23.954241196845203,0.0
21.5,4711.622104287899,-28.747287399362477,23.954241196845203,0.0
21.6,4708.739275547962,-28.909287399362476,23.954241196845203,0.0
21.700000000000003,4705.840246808026,-29.071287399362475,23.954241196845203,0.0
21.8,4702.925018068089,-29.233287399362474,23.954241196845203,0.0
21.900000000000002,4699.993589328153,-29.395287399362473,23.954241196845203,0.0
22.0,4697.045960588216,-29.557287399362473,23.954241196845203,0.0
22.1,4694.0821318482795,-29.71928739936247,23.954241196845203,0.0
22.200000000000003,4691.102103108343,-29.88128739936247,23.954241196845203,0.0
22.3,4688.105874368406,-30.04328739936247,23.954241196845203,0.0
22.400000000000002,4685.093445628469,-30.20528739936247,23.954241196845203,0.0
22.5,4682.064816888534,-30.367287399362468,23.954241196845203,0.0
22.6,4679.019988148598,-30.529287399362467,23.954241196845203,0.0
22.700000000000003,4675.958959408662,-30.691287399362466,23.954241196845203,0.0
22.8,4672.881730668726,-30.853287399362465,23.954241196845203,0.0
22.900000000000002,4669.78830192879,-31.015287399362464,23.954241196845203,0.0
23.0,4666.678673188854,-31.177287399362463,23.954241196845203,0.0
23.1,4663.552844448918,-31.339287399362462,23.954241196845203,0.0
23.200000000000003,4660.410815708982,-31.50128739936246,23.954241196845203,0.0
23.3,4657.252586969046,-31.66328739936246,23.954241196845203,0.0
23.400000000000002,4654.07815822911,-31.82528739936246,23.954241196845203,0.0
23.5,4650.887529489174,-31.987287399362458,23.954241196845203,0.0
23.6,4647.680700749238,-32.14928739936246,23.954241196845203,0.0
23.700000000000003,4644.457672009302,-32.311287399362456,23.954241196845203,0.0
23.8,4641.218443269366,-32.473287399362455,23.954241196845203,0.0
23.900000000000002,4637.9630145294295,-32.635287399362454,23.954241196845203,0.0
24.0,4634.691385789493,-32.79728739936245,23.954241196845203,0.0
24.1,4631.403557049557,-32.95928739936245,23.954241196845203,0.0
24.200000000000003,4628.099528309621,-33.12128739936245,23.954241196845203,0.0
24.3,4624.779299569685,-33.28328739936245,23.954241196845203,0.0
24.400000000000002,4621.442870829748,-33.44528739936245,23.954241196845203,0.0
24.5,4618.090242089812,-33.60728739936245,23.954241196845203,0.0
24.6,4614.721413349876,-33.76928739936245,23.954241196845203,0.0
24.700000000000003,4611.336384609939,-33.931287399362446,23.954241196845203,0.0
24.8,4607.935155870003,-34.093287399362445,23.954241196845203,0.0
24.900000000000002,4604.517727130066,-34.255287399362444,23.954241196845203,0.0
25.0,4601.08409839013,-34.41728739936244,23.954241196845203,0.0
25.1,4597.634269650193,-34.57928739936244,23.954241196845203,0.0
25.200000000000003,4594.168240910257,-34.74128739936244,23.954241196845203,0.0
25.3,4590.68601217032,-34.90328739936244,23.954241196845203,0.0
25.400000000000002,4587.187583430384,-35.06528739936244,23.954241196845203,0.0
25.5,4583.672954690447,-35.22728739936244,23.954241196845203,0.0
