Time[s],Pos[m],V[m/s],mass[kg],T[N]
0.0,5000.0,0.0,24.0,9.953926054808612
0.1,4999.99397374359,-0.12052503825611358,23.999687697922056,9.858518895288128
0.2,4999.9758751334175,-0.24144707695775725,23.999378389221196,9.939596852340992
0.30000000000000004,4999.945701237671,-0.3620307482920375,23.999066536718594,9.893747128569244
0.4,4999.903459449219,-0.4828049318673942,23.99875612274024,9.786853042953249
0.5,4999.849117998125,-0.6040240030391112,23.998449062538565,9.993164327187634
0.6000000000000001,4999.782697650669,-0.7243828553937237,23.998135529369097,9.912388070311726
0.7000000000000001,4999.7042246153405,-0.8450777619730333,23.997824530535603,9.853139700168853
0.8,4999.613669771483,-0.9660190270354568,23.99751539060572,9.947177969799258
0.9,4999.511040421068,-1.086567891405256,23.99720330024735,9.954492969189646
1.0,4999.39635773532,-1.2070857335750675,23.9968909803826,9.912716595327316
1.1,4999.269614587735,-1.3277771288881604,23.996579971241708,9.95168519383574
1.2000000000000002,4999.130810447074,-1.4483055944046797,23.996267739470248,9.856399279233603
1.3,4998.97993363235,-1.5692306118408406,23.995958497271843,9.97942212177674
1.4000000000000001,4998.816989976648,-1.6896424117704065,23.995645395260823,9.929851548635172
1.5,4998.641994838918,-1.810260253267931,23.99533384851482,9.957290873845634
1.6,4998.454943661592,-1.9307632032296727,23.995021440866473,9.951295876704714
1.7000000000000002,4998.255840967055,-2.0512905975720277,23.994709221309744,9.873659732767438
1.8,4998.044669382162,-2.172141011722915,23.99439943756869,9.918328395200083
1.9000000000000001,4997.821422090642,-2.292804729323581,23.994088252358903,9.826747234380584
2.0,4997.586089369894,-2.413849597934848,23.993779940486398,9.936275320141414
2.1,4997.33867501306,-2.534437449053929,23.993468192196083,10.083543052701085
2.2,4997.079232587416,-2.654410971466774,23.993151823415456,9.893717793358466
2.3000000000000003,4996.807753278677,-2.7751751143894916,23.99284141035749,10.01887063416034
2.4000000000000004,4996.524223663836,-2.8954170912609736,23.992527070658713,9.917767466458647
2.5,4996.228648808758,-3.01607992093568,23.992215903047935,9.931234508237317
2.6,4995.921010504088,-3.136686082875589,23.991904312911903,9.830423182650144
2.7,4995.601290600476,-3.257711901575375,23.99159588570739,9.914070381627646
2.8000000000000003,4995.269485574086,-3.3783885369376376,23.991284834091775,9.959195178844633
2.9000000000000004,4994.925622315443,-3.498876545797622,23.990972366696308,9.936917112186217
3.0,4994.569705639898,-3.6194568754017373,23.99066059826992,10.09178571480149
3.1,4994.201763235439,-3.7393911212326922,23.990343970877717,9.927147175034666
3.2,4993.821793120356,-3.8600110908807364,23.990032508980796,9.941048852353182
3.3000000000000003,4993.429763932581,-3.9805725748148024,23.989720610922035,9.980387460759157
3.4000000000000004,4993.025686822478,-4.1009695367509424,23.989407478623733,9.978227398785075
3.5,4992.609569593117,-4.221374959991385,23.98909441409686,10.004975183136697
3.6,4992.181417423611,-4.341668339183224,23.988780510364577,9.935796657926586
3.7,4991.741221524414,-4.462249555048536,23.988468777092177,9.84606668609316
3.8000000000000003,4991.288948827651,-4.583204292110629,23.98815985907644,10.016341139778005
3.9000000000000004,4990.824616175272,-4.703448664294853,23.987845598739952,9.9161746070645
4.0,4990.348238234244,-4.824110066911361,23.98753448110476,10.016039473263652
4.1000000000000005,4989.859814995935,-4.944354608092768,23.98722023023299,9.907302420457144
4.2,4989.359344665041,-5.065051920586712,23.986909390960555,9.888446460478193
4.3,4988.846800699156,-5.185827308242354,23.98659914328941,10.061202669036906
4.4,4988.322215232463,-5.305881933605828,23.986283475433044,9.768700190066959
4.5,4987.7855633574445,-5.427155480040842,23.98597698477284,9.822707117806639
4.6000000000000005,4987.236795411919,-5.54820334276341,23.98566879965804,9.934625146581743
4.7,4986.675946036819,-5.668784069526054,23.98535710314153,9.88491327012577
4.800000000000001,4986.103028252903,-5.789571519988429,23.9850469663234,9.824503310210517
4.9,4985.518019157222,-5.910610305887559,23.984738724853486,9.968997552186572
5.0,4984.920936331653,-6.0310461151416135,23.98442594991087,9.999171084939972
5.1000000000000005,4984.31181624255,-6.15135557603059,23.984112228280797,9.973646104405285
5.2,4983.690659913351,-6.271770917515245,23.983799307490955,9.911339721373263
5.300000000000001,4983.057449087754,-6.392445505104896,23.983488341549158,9.866125514953632
5.4,4982.412161403998,-6.513308081538775,23.983178794192405,9.842298124130574
5.5,4981.754782521582,-6.6342694787235095,23.982869994414408,9.910529277334788
5.6000000000000005,4981.085321750967,-6.754945844288838,23.9825590539001,9.917043539651102
5.7,4980.40379472872,-6.875594511227244,23.982247909002353,9.971851591015993
5.800000000000001,4979.710214293499,-6.996014102776124,23.981935044514945,9.973953525129414
5.9,4979.004592364483,-7.116424387099736,23.98162211407985,10.038106022649266
6.0,4978.286942809632,-7.236566618308528,23.981307170875308,9.890581532014163
6.1000000000000005,4977.557248300653,-7.357323472330531,23.980996856216798,9.947264503154944
6.2,4976.815489951367,-7.477843423393798,23.98068476314346,10.000714369779063
6.300000000000001,4976.061690778423,-7.598139944551503,23.98037099309319,10.016515293302456
6.4,4975.295865275229,-7.718370028103539,23.980056727292677,9.934356532198601
6.5,4974.5179996602565,-7.838942181588634,23.97974503920388,9.906008146094821
6.6000000000000005,4973.728070945906,-7.959632016172948,23.979434240539,9.89648645117265
6.7,4972.926071289465,-8.080361023599735,23.979123740615048,9.910764760702333
6.800000000000001,4972.112001736264,-8.201029951092252,23.978812792712507,9.925314681385665
6.9,4971.285868351049,-8.321637663592329,23.978501388309642,9.895819607217794
7.0,4970.447668071094,-8.44236784645839,23.97819090930776,9.955501368759272
7.1000000000000005,4969.597407244688,-8.562848591525592,23.97787855780471,9.954842030254612
7.2,4968.735098233327,-8.683331545546478,23.977566226988255,9.927572891419963
7.300000000000001,4967.86073526717,-8.803927687961588,23.977254751734584,9.820876902815387
7.4,4966.974290464054,-8.92496828661115,23.976946624042345,9.943892945343226
7.5,4966.075767280598,-9.045495292586349,23.976634636750838,9.833851103620862
7.6000000000000005,4965.165168475603,-9.166480719336816,23.976326101996115,9.872688007951623
7.7,4964.242479253404,-9.287303635993156,23.976016348742693,9.93725940897409
7.800000000000001,4963.307721232086,-9.407856700538884,23.975704569576823,9.916505014175238
7.9,4962.360903603011,-9.528495791506069,23.975393441575186,10.052449575818569
8.0,4961.402050442774,-9.64856732130082,23.97507804834505,9.84056207958438
8.1,4960.431145967638,-9.769522093324982,23.974769303035043,9.896275574287335
8.200000000000001,4959.4481576610215,-9.890243949905644,23.974458809727302,9.969015908697392
8.3,4958.453112365989,-10.010661860327495,23.974146034208758,9.939353292016897
8.4,4957.446019120609,-10.131202957383868,23.9738341893478,9.9644081438514
8.5,4956.4268770179915,-10.251639004633622,23.97352155839679,9.887307781670605
8.6,4955.395675257294,-10.372396120362737,23.973211346451425,9.871393084503179
8.700000000000001,4954.352394492413,-10.493219088603349,23.972901633825924,9.9965368190875
8.8,4953.297057558614,-10.613519496434611,23.97258799484532,9.844652904858046
8.9,4952.229658932372,-10.734452940212153,23.972279121186634,9.904123859745898
9.0,4951.150179392425,-10.855137769463877,23.971968381640792,9.897617541839388
9.1,4950.0586300392515,-10.975849204869553,23.971657846229135,9.889868347487377
9.200000000000001,4948.955007952942,-11.096592432311905,23.97134755394662,9.92683330500884
9.3,4947.839319280894,-11.217180918957006,23.9710361018973,9.892400797742464
9.4,4946.711564604917,-11.337912511539963,23.97072573015976,9.905937065715483
9.5,4945.5717396199225,-11.458587099050074,23.97041493372501,9.947747323713713
9.600000000000001,4944.419855924264,-11.579086724048642,23.970102825503293,9.905247437815223
9.700000000000001,4943.255913427862,-11.699763114710192,23.969792050705454,10.045524046359379
9.8,4942.079932580559,-11.819853739487462,23.96947687476217,10.095479572343967
9.9,4940.891953119079,-11.939735397361142,23.96916013147606,9.898976661250794
10.0,4939.691944528503,-12.060436324969709,23.968849553422352,10.06333229650759
10.100000000000001,4938.479900157479,-12.18045100333242,23.968533818749425,9.910332572439435
10.200000000000001,4937.255822429206,-12.301103472735191,23.96822288440669,9.902083307144961
10.3,4936.019677759922,-12.421789823697726,23.9679122088827,9.969667897130115
10.4,4934.771478581412,-12.542193656013392,23.967599412908175,9.99146766109662
10.5,4933.511243594611,-12.66250598913302,23.967285932971205,9.82846619166668
10.600000000000001,4932.238943396475,-12.783497885642397,23.966977567166822,9.796905935364723
10.700000000000001,4930.954537450901,-12.904620938472377,23.966670191558023,9.821392469092968
10.8,4929.658024334755,-13.02564129662453,23.966362047690016,10.020181256854396
10.9,4928.349450681956,-13.14583166795504,23.96604766687076,10.008548229112936
11.0,4927.028855592444,-13.266070031086697,23.965733651035006,9.947286992788802
11.100000000000001,4925.696223912862,-13.386563470480334,23.965421557256064,9.869933257478039
11.200000000000001,4924.351526777613,-13.507379145801838,23.96511189043229,9.944434821608105
11.3,4922.99476364533,-13.62788340982759,23.964799886139545,9.923347099554498
11.4,4921.625945713889,-13.74847512931757,23.964488543469095,10.04723647041325
11.5,4920.245094486157,-13.868549333431682,23.96417331379891,9.964347447007599
11.600000000000001,4918.852218571073,-13.988968877836736,23.963860684752248,10.075910320342157
11.700000000000001,4917.447324006191,-14.108922327350681,23.963544555446795,9.832539350767762
11.8,4916.030383344232,-14.22989082377685,23.963236061848008,9.983085220990086
11.9,4914.601377271155,-14.350230547014196,23.962922844908114,9.94962091765612
12.0,4913.160330270403,-14.470709377873487,23.96261067790283,9.848018464287378
12.100000000000001,4911.707214213223,-14.591611677424725,23.962301698650514,9.777219241028625
12.200000000000001,4910.241993179414,-14.712808911701366,23.961994940707097,9.850193540363803
12.3,4908.764667675517,-14.833701077874343,23.96168589321228,9.982442358002098
12.4,4907.275280577643,-14.95404078885306,23.961372696442062,9.932896880501303
12.5,4905.773849197193,-15.07458673027024,23.961061054149493,9.951936132054046
12.600000000000001,4904.260367222551,-15.19505267235602,23.960748814504903,9.904689770904154
12.700000000000001,4902.734828821562,-15.315715258082207,23.96043805720373,9.867266324840143
12.8,4901.197216379314,-15.436533498185687,23.960128474054336,9.994287284489483
12.9,4899.647548646627,-15.556821064573487,23.959814905652348,9.91904729245173
13.0,4898.085836483171,-15.677422114915391,23.95950369788733,10.056886689192678
13.100000000000001,4896.512093006896,-15.797447318449656,23.959188165443813,9.84680483562456
13.200000000000001,4894.926303195922,-15.918348812720374,23.95887922426881,9.935636481834512
13.3,4893.328441800533,-16.038879005115756,23.958567496021896,9.93338054432534
13.4,4891.718526942081,-16.159418074055672,23.95825583855449,9.850637769037142
13.5,4890.0965409354385,-16.28030197039369,23.957946777122103,9.85637774735183
13.600000000000001,4888.46246776362,-16.401161377457743,23.957637535599254,9.908947992015277
13.700000000000001,4886.816319649242,-16.521800820639342,23.957326644697403,9.911622802334625
13.8,4885.158108175633,-16.642428562047535,23.95701566987401,9.968040833182235
13.9,4883.487845729682,-16.762820266445946,23.956702924948228,10.02293233190328
14.0,4881.805555596947,-16.882982296727075,23.956388457814644,9.975463056195029
14.100000000000001,4880.111239381121,-17.00334192912135,23.95607548001837,9.952077381486562
14.200000000000001,4878.404882348265,-17.12379863774142,23.955763235942115,10.053053887103701
14.3,4876.686500747424,-17.24383328698156,23.955447823751854,10.009937647157212
14.4,4874.956106709952,-17.364047371154598,23.955133764323435,9.947961245570605
14.5,4873.213678355409,-17.484519629540948,23.95482164938997,9.916721701987374
14.600000000000001,4871.459196281511,-17.605121758795494,23.954510514589803,9.928605971813875
14.700000000000001,4869.692656502186,-17.72567373787773,23.954199006923478,0.0
14.8,4867.911989128398,-17.88767373787773,23.954199006923478,0.0
14.9,4866.11512175461,-18.04967373787773,23.954199006923478,0.0
15.0,4864.3020543808225,-18.211673737877728,23.954199006923478,0.0
15.100000000000001,4862.472787007035,-18.373673737877727,23.954199006923478,0.0
15.200000000000001,4860.627319633247,-18.535673737877726,23.954199006923478,0.0
15.3,4858.765652259459,-18.697673737877725,23.954199006923478,0.0
15.4,4856.887784885671,-18.859673737877724,23.954199006923478,0.0
15.5,4854.993717511883,-19.021673737877723,23.954199006923478,0.0
15.600000000000001,4853.083450138095,-19.183673737877722,23.954199006923478,0.0
15.700000000000001,4851.156982764307,-19.34567373787772,23.954199006923478,0.0
15.8,4849.214315390519,-19.50767373787772,23.954199006923478,0.0
15.9,4847.255448016731,-19.66967373787772,23.954199006923478,0.0
16.0,4845.280380642943,-19.83167373787772,23.954199006923478,0.0
16.1,4843.289113269155,-19.993673737877717,23.954199006923478,0.0
16.2,4841.281645895367,-20.155673737877716,23.954199006923478,0.0
16.3,4839.2579785215785,-20.317673737877715,23.954199006923478,0.0
16.400000000000002,4837.21811114779,-20.479673737877715,23.954199006923478,0.0
16.5,4835.162043774002,-20.641673737877714,23.954199006923478,0.0
16.6,4833.089776400215,-20.803673737877713,23.954199006923478,0.0
16.7,4831.001309026427,-20.96567373787771,23.954199006923478,0.0
16.8,4828.89664165264,-21.12767373787771,23.954199006923478,0.0
16.900000000000002,4826.775774278853,-21.28967373787771,23.954199006923478,0.0
17.0,4824.638706905065,-21.45167373787771,23.954199006923478,0.0
17.1,4822.485439531278,-21.613673737877708,23.954199006923478,0.0
17.2,4820.31597215749,-21.775673737877707,23.954199006923478,0.0
17.3,4818.130304783703,-21.937673737877706,23.954199006923478,0.0
17.400000000000002,4815.928437409915,-22.099673737877705,23.954199006923478,0.0
17.5,4813.710370036128,-22.261673737877704,23.954199006923478,0.0
17.6,4811.47610266234,-22.423673737877703,23.954199006923478,0.0
17.7,4809.225635288552,-22.585673737877702,23.954199006923478,0.0
17.8,4806.958967914765,-22.7476737378777,23.954199006923478,0.0
17.900000000000002,4804.676100540977,-22.9096737378777,23.954199006923478,0.0
18.0,4802.377033167189,-23.0716737378777,23.954199006923478,0.0
18.1,4800.061765793402,-23.233673737877698,23.954199006923478,0.0
18.2,4797.730298419614,-23.395673737877697,23.954199006923478,0.0
18.3,4795.382631045826,-23.557673737877696,23.954199006923478,0.0
18.400000000000002,4793.018763672038,-23.719673737877695,23.954199006923478,0.0
18.5,4790.638696298251,-23.881673737877694,23.954199006923478,0.0
18.6,4788.242428924463,-24.043673737877693,23.954199006923478,0.0
18.7,4785.829961550675,-24.205673737877692,23.954199006923478,0.0
18.8,4783.401294176887,-24.36767373787769,23.954199006923478,0.0
18.900000000000002,4780.956426803099,-24.52967373787769,23.954199006923478,0.0
19.0,4778.495359429311,-24.69167373787769,23.954199006923478,0.0
19.1,4776.018092055523,-24.85367373787769,23.954199006923478,0.0
19.200000000000003,4773.524624681735,-25.015673737877687,23.954199006923478,0.0
19.3,4771.014957307947,-25.177673737877686,23.954199006923478,0.0
19.400000000000002,4768.489089934159,-25.339673737877686,23.954199006923478,0.0
19.5,4765.947022560371,-25.501673737877685,23.954199006923478,0.0
19.6,4763.388755186583,-25.663673737877684,23.954199006923478,0.0
19.700000000000003,4760.814287812795,-25.825673737877683,23.954199006923478,0.0
19.8,4758.2236204390065,-25.98767373787768,23.954199006923478,0.0
19.900000000000002,4755.616753065218,-26.14967373787768,23.954199006923478,0.0
20.0,4752.99368569143,-26.31167373787768,23.954199006923478,0.0
20.1,4750.354418317643,-26.47367373787768,23.954199006923478,0.0
20.200000000000003,4747.698950943855,-26.635673737877678,23.954199006923478,0.0
20.3,4745.027283570068,-26.797673737877677,23.954199006923478,0.0
20.400000000000002,4742.339416196281,-26.959673737877676,23.954199006923478,0.0
20.5,4739.635348822493,-27.121673737877675,23.954199006923478,0.0
20.6,4736.915081448706,-27.283673737877674,23.954199006923478,0.0
20.700000000000003,4734.178614074918,-27.445673737877673,23.954199006923478,0.0
20.8,4731.425946701131,-27.607673737877672,23.954199006923478,0.0
20.900000000000002,4728.657079327343,-27.76967373787767,23.954199006923478,0.0
21.0,4725.872011953556,-27.93167373787767,23.954199006923478,0.0
21.1,4723.070744579768,-28.09367373787767,23.954199006923478,0.0
21.200000000000003,4720.25327720598,-28.255673737877668,23.954199006923478,0.0
21.3,4717.419609832193,-28.417673737877667,23.954199006923478,0.0
21.400000000000002,4714.569742458405,-28.579673737877666,23.954199006923478,0.0
21.5,4711.703675084617,-28.741673737877665,23.954199006923478,0.0
21.6,4708.82140771083,-28.903673737877664,23.954199006923478,0.0
21.700000000000003,4705.922940337042,-29.065673737877663,23.954199006923478,0.0
21.8,4703.008272963254,-29.227673737877662,23.954199006923478,0.0
21.900000000000002,4700.077405589466,-29.38967373787766,23.954199006923478,0.0
22.0,4697.130338215678,-29.55167373787766,23.954199006923478,0.0
22.1,4694.167070841891,-29.71367373787766,23.954199006923478,0.0
22.200000000000003,4691.187603468103,-29.87567373787766,23.954199006923478,0.0
22.3,4688.191936094315,-30.037673737877657,23.954199006923478,0.0
22.400000000000002,4685.180068720527,-30.199673737877657,23.954199006923478,0.0
22.5,4682.152001346739,-30.361673737877656,23.954199006923478,0.0
22.6,4679.107733972951,-30.523673737877655,23.954199006923478,0.0
22.700000000000003,4676.047266599163,-30.685673737877654,23.954199006923478,0.0
22.8,4672.970599225375,-30.847673737877653,23.954199006923478,0.0
22.900000000000002,4669.877731851587,-31.00967373787765,23.954199006923478,0.0
23.0,4666.768664477799,-31.17167373787765,23.954199006923478,0.0
23.1,4663.643397104011,-31.33367373787765,23.954199006923478,0.0
23.200000000000003,4660.501929730222,-31.49567373787765,23.954199006923478,0.0
23.3,4657.344262356434,-31.657673737877648,23.954199006923478,0.0
23.400000000000002,4654.170394982646,-31.819673737877647,23.954199006923478,0.0
23.5,4650.980327608859,-31.981673737877646,23.954199006923478,0.0
23.6,4647.774060235071,-32.14367373787765,23.954199006923478,0.0
23.700000000000003,4644.551592861284,-32.30567373787765,23.954199006923478,0.0
23.8,4641.312925487497,-32.46767373787765,23.954199006923478,0.0
23.900000000000002,4638.058058113709,-32.629673737877646,23.954199006923478,0.0
24.0,4634.786990739922,-32.791673737877645,23.954199006923478,0.0
24.1,4631.499723366134,-32.953673737877644,23.954199006923478,0.0
24.200000000000003,4628.196255992347,-33.11567373787764,23.954199006923478,0.0
24.3,4624.876588618559,-33.27767373787764,23.954199006923478,0.0
24.400000000000002,4621.540721244772,-33.43967373787764,23.954199006923478,0.0
24.5,4618.188653870984,-33.60167373787764,23.954199006923478,0.0
24.6,4614.8203864971965,-33.76367373787764,23.954199006923478,0.0
24.700000000000003,4611.435919123409,-33.92567373787764,23.954199006923478,0.0
24.8,4608.035251749621,-34.08767373787764,23.954199006923478,0.0
24.900000000000002,4604.618384375834,-34.249673737877636,23.954199006923478,0.0
25.0,4601.185317002046,-34.411673737877635,23.954199006923478,0.0
25.1,4597.736049628258,-34.573673737877634,23.954199006923478,0.0
25.200000000000003,4594.27058225447,-34.73567373787763,23.954199006923478,0.0
25.3,4590.788914880683,-34.89767373787763,23.954199006923478,0.0
25.400000000000002,4587.291047506895,-35.05967373787763,23.954199006923478,0.0
25.5,4583.776980133107,-35.22167373787763,23.954199006923478,0.0
