Time[s],Pos[m],V[m/s],mass[kg],T[N]
0.0,5000.0,0.0,24.0,9.923020788311725
0.1,4999.993967304937,-0.12065381187292708,23.99968866756749,9.894487836155973
0.2,4999.9758633110105,-0.2414259777679966,23.99937823034961,9.998177798162393
0.30000000000000004,4999.945703729982,-0.36176555204891386,23.999064539883673,9.95604978843444
0.4,4999.903501441665,-0.48228012429077455,23.998752171174086,9.960802558499692
0.5,4999.8492487133435,-0.6027743520570268,23.998439653347464,9.816818750633809
0.6000000000000001,4999.782916590435,-0.7238680186103514,23.998131652978792,10.034951806510223
0.7000000000000001,4999.704520575439,-0.8440521898653124,23.997816808737035,9.800154976932523
0.8,4999.61405724987,-0.965214234317329,23.997509331190322,9.937439899289826
0.9,4999.511506350258,-1.0858036682531051,23.997197546361612,10.007880807889705
1.0,4999.3969112111845,-1.2060990222671422,23.996883551466038,9.867263272319116
1.1,4999.270257264617,-1.3269798206827637,23.996573968412417,10.001500745708812
1.2000000000000002,4999.131543235107,-1.4473006786831983,23.996260173689787,9.957525399324036
1.3,4998.98078798401,-1.5678042532072292,23.995947758683258,9.972437801187203
1.4000000000000001,4998.817985509776,-1.6882451411550992,23.995634875803646,9.769399460695373
1.5,4998.643096666129,-1.8095316451072119,23.99532836320399,9.865329303952874
1.6,4998.456099187536,-1.9304178383570878,23.995018840828166,9.921228071962341
1.7000000000000002,4998.257024764231,-2.0510705383609342,23.994707564641708,9.858536390889116
1.8,4998.045872033984,-2.1719839783070896,23.99439825539193,10.02985740281875
1.9000000000000001,4997.822663686744,-2.292182875120494,23.994083570985882,9.92768477470154
2.0,4997.587414185836,-2.412807053518811,23.9937720922219,9.85145422075534
2.1,4997.34008640832,-2.5337484086483704,23.993463005173535,9.918201777947601
2.2,4997.080678431386,-2.654411040661871,23.993151823936337,9.865833037905652
2.3000000000000003,4996.809193304696,-2.775291404730228,23.992842285755984,9.996759312048962
2.4000000000000004,4996.525647452804,-2.8956255423251993,23.992528639794713,9.793764605420218
2.5,4996.2300259102885,-3.016805220847914,23.9922213627444,9.987268155189538
2.6,4995.922326752719,-3.137177839941201,23.991908014565933,9.984181932810412
2.7,4995.602589717238,-3.257562779118359,23.991594763216966,10.148322254284949
2.8000000000000003,4995.270848423188,-3.3772630083191095,23.991276362004196,9.974903238090535
2.9000000000000004,4994.927100991871,-3.497685527620668,23.990963401772085,10.014586487219663
3.0,4994.5713196062725,-3.617942093229611,23.990649196487407,9.84651484879281
3.1,4994.203477562573,-3.7388986926680063,23.990340264410673,9.981226092181737
3.2,4993.823567961742,-3.859293233437945,23.990027105800507,10.019346438439495
3.3000000000000003,4993.431626879099,-3.9795283282156566,23.989712751173485,9.958260365941172
3.4000000000000004,4993.027649582508,-4.100017513487839,23.989400313107552,9.989204951157777
3.5,4992.611629844116,-4.220377163694967,23.98908690416257,9.886492811354222
3.6,4992.18355275962,-4.341164437386874,23.988776717786703,9.981452694629919
3.7,4991.743416767137,-4.461555321736912,23.98846355206694,9.919443518734104
3.8000000000000003,4991.2912287884765,-4.5822041620683365,23.988152331870417,9.89300974339838
3.9000000000000004,4990.826970442803,-4.70296266246642,23.987841941027348,10.004396188677257
4.0,4990.350659491244,-4.82325627775463,23.987528055460878,9.996680887426315
4.1000000000000005,4989.86231759724,-4.943581511519637,23.987214411960164,9.951095706470735
4.2,4989.361933705047,-5.06409624233845,23.98690219868373,9.894300505775012
4.3,4988.849486527874,-5.184847212143068,23.986591767343295,9.970572807615337
4.4,4988.324980179496,-5.305279665068544,23.986278942977414,9.905901892589261
4.5,4987.788417132,-5.425981195668039,23.98596814764621,9.813784310002783
4.6000000000000005,4987.239764755645,-5.5470662438956,23.985660242482396,10.046461332783533
4.7,4986.679052404509,-5.667180687091571,23.98534503713197,9.943686000455417
4.800000000000001,4986.106307211779,-5.7877230776425845,23.98503305633331,9.936864988742196
4.9,4985.521506385013,-5.908293367924938,23.984721289542282,9.970471272615454
5.0,4984.924655561975,-6.028723002470835,23.984408468362037,9.842267615084104
5.1000000000000005,4984.315735075903,-6.149686630912542,23.984099669541255,9.848150252391367
5.2,4983.694719479777,-6.270625203447207,23.983790686154116,10.012422109106698
5.300000000000001,4983.061644299576,-6.3908783094237815,23.983476548776288,9.941661398389803
5.4,4982.416529084019,-6.511425911866214,23.98316463149904,9.985159765526658
5.5,4981.759368203774,-6.631791602401654,23.982851349470803,10.067561681302006
5.6000000000000005,4981.090187961159,-6.751813157750309,23.982535482101927,9.958882506029946
5.7,4980.408982932473,-6.872287325801018,23.982223024516497,9.932096395822922
5.800000000000001,4979.715724929409,-6.992872645796426,23.981911407338945,9.93969393517343
5.9,4979.01041000528,-7.113425746949579,23.981599551790392,9.819746816204319
6.0,4978.293014789613,-7.2344784787208285,23.981291459554352,9.80281757701456
6.1000000000000005,4977.563510797365,-7.3556012788633405,23.980983898469194,9.96664199959906
6.2,4976.821928708762,-7.4760404028685,23.980671197431487,10.023164688496632
6.300000000000001,4976.06831452001,-7.59624328081654,23.98035672300777,9.892010991223893
6.4,4975.302652724563,-7.716992539143167,23.980046363500314,9.834006271717506
6.5,4974.524903935501,-7.837983154140799,23.97973782387723,9.96025407056841
6.6000000000000005,4973.735082435399,-7.958446757685541,23.979425323259285,9.929437077583495
6.7,4972.933208176236,-8.079038335905329,23.979113789517214,9.990953907909795
6.800000000000001,4972.119287613431,-8.199372829419582,23.97880032569913,10.062932705424265
6.9,4971.2933486374795,-8.319406597509612,23.978484603563277,9.95904471807752
7.0,4970.455384649407,-8.43987307372255,23.978172140888482,10.006932714709183
7.1000000000000005,4969.60538402661,-8.560139291135535,23.977858175739108,9.957902844038003
7.2,4968.743346585317,-8.680609444531262,23.977545748890343,9.934713014336246
7.300000000000001,4967.8692573199605,-8.801175772825463,23.977234049617003,9.797332714769043
7.4,4966.983082800389,-8.922314531298982,23.9769266606181,9.901095007886125
7.5,4966.084816069295,-9.043020001404608,23.97661601610177,9.849137662727728
7.6000000000000005,4965.174467982844,-9.163941639365236,23.976307001734867,9.96435270518307
7.7,4964.25205178613,-9.28438220459461,23.975994372523232,9.954117510879545
7.800000000000001,4963.317589425503,-9.404864917814841,23.9756820644384,10.023873290408865
7.9,4962.371093367915,-9.525056142543248,23.975367567782467,9.847358495228711
8.0,4961.412541403259,-9.645983062362431,23.975058609236523,9.828918965333555
8.1,4960.441892927487,-9.76698636517608,23.974750229226473,9.934285209995693
8.200000000000001,4959.45916612241,-9.887549646581116,23.974438543375392,9.965175501689545
8.3,4958.464389458523,-10.007983540817843,23.97412588834871,9.970450518939872
8.4,4957.457570532474,-10.128394889726101,23.973813067819606,9.999552913627095
8.5,4956.438716568342,-10.248684301946225,23.973499334209748,9.87285999970239
8.6,4955.407807266518,-10.36950164585742,23.973189575560127,9.915563597807981
8.700000000000001,4954.364825163518,-10.490140324686902,23.972878477095207,9.924958399130839
8.8,4953.309781178954,-10.61073927696215,23.972567083870615,9.954918938023452
8.9,4952.2426835750275,-10.731212711392565,23.972254750641195,9.89562559494907
9.0,4951.163526287527,-10.851932949520927,23.971944277726404,9.991358606620686
9.1,4950.072316970838,-10.97225329342389,23.971630801210992,9.907480522855014
9.200000000000001,4948.969058151578,-11.09292300245747,23.971319956350637,9.857599441486887
9.3,4947.853721983796,-11.213800264736957,23.971010676497425,9.919456025744395
9.4,4946.7263110188005,-11.334418945637209,23.9706994559085,9.950093303783033
9.5,4945.586844603202,-11.454909276238332,23.97038727408221,9.951899010349917
9.600000000000001,4944.4353295582305,-11.575391533058454,23.970075035602306,10.005597792051473
9.700000000000001,4943.271777515928,-11.695649221877757,23.969761112335817,10.027162948222633
9.8,4942.0962042305255,-11.815816394656897,23.96944651246765,9.954219409812616
9.9,4940.908599039224,-11.936287341181526,23.96913420118576,9.954592648479226
10.0,4939.708946858185,-12.056756189406359,23.968821878193598,9.87128557197442
10.100000000000001,4938.497230441015,-12.177572065306318,23.968512168941274,9.933299740696674
10.200000000000001,4937.273445399565,-12.29812867386421,23.968200514009062,9.909490973229136
10.3,4936.037599757421,-12.418784079640757,23.967889606071303,9.94169165675529
10.4,4934.789695319037,-12.539304598087199,23.967577687844706,9.862384253917567
10.5,4933.529722310929,-12.660155475525196,23.967268257869133,9.96733629031499
10.600000000000001,4932.257686136698,-12.780567918653443,23.966955535048218,9.985971565010484
10.700000000000001,4930.973612633022,-12.90090206409101,23.96664222754996,10.064030144905388
10.8,4929.677522027017,-13.020909963796337,23.966326470982207,9.979086708025042
10.9,4928.369412937136,-13.141271743174116,23.96601337949471,10.013990480188287
11.0,4927.04927497851,-13.261487338057337,23.965699192909614,10.05091695188465
11.100000000000001,4925.717123191877,-13.381548302615554,23.965383847765192,9.883019290101197
11.200000000000001,4924.372930306873,-13.502309308533848,23.965073770370235,9.923421425886065
11.3,4923.0166697774075,-13.622901191111957,23.964762425367816,10.052709812452578
11.4,4921.648377061503,-13.742953034953768,23.964447023972816,9.88987801330595
11.5,4920.268045214904,-13.863683807955846,23.96413673138704,9.95758034566515
11.600000000000001,4918.875654443607,-13.984131527706577,23.963824314656584,9.837922932136106
11.700000000000001,4917.471193960945,-14.10507803740611,23.9635156521492,9.891556906448544
11.8,4916.054650044605,-14.22580020028873,23.96320530688855,9.918017722838725
11.9,4914.626039459889,-14.346411404458417,23.962894131426037,9.941221523071789
12.0,4913.185372623282,-14.46692523769122,23.962582227949774,9.969502619156986
12.100000000000001,4911.732660331498,-14.587320507481667,23.962269437160803,9.949125253276033
12.200000000000001,4910.267904287883,-14.707800274673533,23.961957285706873,9.833153266267976
12.3,4908.7910760951945,-14.828763491029207,23.961648772846633,9.981509103167895
12.4,4907.302182564491,-14.949107032305616,23.961335605357064,9.947527689059728
12.5,4905.801247615935,-15.069591848687484,23.961023504026333,9.95785474111932
12.600000000000001,4904.288266367766,-15.190033024375426,23.960711078686785,9.913521181017426
12.700000000000001,4902.763231777739,-15.310658686640586,23.960400044302208,9.828160236994842
12.8,4901.226116835265,-15.431640074844974,23.96009168809708,10.05408463246327
12.9,4899.676950926754,-15.551678003301097,23.95977624356743,9.843695748923011
13.0,4898.115737348038,-15.67259348275945,23.959467399939285,9.929429814804694
13.100000000000001,4896.54245013949,-15.793150598393803,23.959155866425082,9.975105285796548
13.200000000000001,4894.95711677835,-15.913516533771897,23.95884289985377,9.970615965555245
13.3,4893.359745913975,-16.03390066317269,23.95853007413382,9.92026803349383
13.4,4891.750326156429,-16.154494398094563,23.95821882806834,9.989602358386199
13.5,4890.128861522254,-16.27479819449682,23.9579054066548,9.958302514518827
13.600000000000001,4888.495360003398,-16.395232092285184,23.957592967266464,9.89138036598896
13.700000000000001,4886.849801154953,-16.51594478748334,23.95728262754473,10.018004707336026
13.8,4885.192197491067,-16.63612839878725,23.9569683150142,9.97005905476687
13.9,4883.522565486776,-16.756511596468172,23.956655506767195,9.894487733478664
14.0,4881.84087941724,-16.877209705062494,23.956345069552537,10.073440336620466
14.100000000000001,4880.14716091366,-16.99716027408079,23.95602901774224,9.87389199858942
14.200000000000001,4878.441405731677,-17.117943276744988,23.955719226713896,9.883874199624179
14.3,4876.723574359566,-17.23868407647017,23.955409122496356,9.939390473282954
14.4,4874.993680521707,-17.35919259069603,23.955097276468848,9.909150106106141
14.5,4873.251729547491,-17.479826804139513,23.954786379225713,9.786486928751042
14.600000000000001,4871.497689575492,-17.60097254856324,23.954479330510782,9.945285009555933
14.700000000000001,4869.73156820132,-17.721454844727887,23.95416729954359,0.0
14.8,4867.951322716847,-17.883454844727886,23.95416729954359,0.0
14.9,4866.154877232374,-18.045454844727885,23.95416729954359,0.0
15.0,4864.342231747902,-18.207454844727884,23.95416729954359,0.0
15.100000000000001,4862.513386263429,-18.369454844727883,23.95416729954359,0.0
15.200000000000001,4860.668340778957,-18.531454844727882,23.95416729954359,0.0
15.3,4858.8070952944845,-18.69345484472788,23.95416729954359,0.0
15.4,4856.929649810012,-18.85545484472788,23.95416729954359,0.0
15.5,4855.03600432554,-19.01745484472788,23.95416729954359,0.0
15.600000000000001,4853.126158841067,-19.17945484472788,23.95416729954359,0.0
15.700000000000001,4851.200113356595,-19.341454844727878,23.95416729954359,0.0
15.8,4849.257867872122,-19.503454844727877,23.95416729954359,0.0
15.9,4847.299422387649,-19.665454844727876,23.95416729954359,0.0
16.0,4845.324776903177,-19.827454844727875,23.95416729954359,0.0
16.1,4843.333931418704,-19.989454844727874,23.95416729954359,0.0
16.2,4841.3268859342315,-20.151454844727873,23.95416729954359,0.0
16.3,4839.303640449759,-20.31345484472787,23.95416729954359,0.0
16.400000000000002,4837.264194965286,-20.47545484472787,23.95416729954359,0.0
16.5,4835.208549480813,-20.63745484472787,23.95416729954359,0.0
16.6,4833.136703996341,-20.79945484472787,23.95416729954359,0.0
16.7,4831.048658511868,-20.961454844727868,23.95416729954359,0.0
16.8,4828.944413027395,-21.123454844727867,23.95416729954359,0.0
16.900000000000002,4826.823967542922,-21.285454844727866,23.95416729954359,0.0
17.0,4824.687322058449,-21.447454844727865,23.95416729954359,0.0
17.1,4822.5344765739765,-21.609454844727864,23.95416729954359,0.0
17.2,4820.3654310895035,-21.771454844727863,23.95416729954359,0.0
17.3,4818.180185605031,-21.933454844727862,23.95416729954359,0.0
17.400000000000002,4815.978740120558,-22.09545484472786,23.95416729954359,0.0
17.5,4813.761094636085,-22.25745484472786,23.95416729954359,0.0
17.6,4811.527249151612,-22.41945484472786,23.95416729954359,0.0
17.7,4809.277203667139,-22.58145484472786,23.95416729954359,0.0
17.8,4807.0109581826655,-22.743454844727857,23.95416729954359,0.0
17.900000000000002,4804.728512698192,-22.905454844727856,23.95416729954359,0.0
18.0,4802.429867213719,-23.067454844727855,23.95416729954359,0.0
18.1,4800.115021729246,-23.229454844727854,23.95416729954359,0.0
18.2,4797.783976244773,-23.391454844727853,23.95416729954359,0.0
18.3,4795.4367307603,-23.553454844727852,23.95416729954359,0.0
18.400000000000002,4793.0732852758265,-23.71545484472785,23.95416729954359,0.0
18.5,4790.693639791354,-23.87745484472785,23.95416729954359,0.0
18.6,4788.297794306882,-24.03945484472785,23.95416729954359,0.0
18.7,4785.885748822409,-24.20145484472785,23.95416729954359,0.0
18.8,4783.457503337937,-24.363454844727848,23.95416729954359,0.0
18.900000000000002,4781.0130578534645,-24.525454844727847,23.95416729954359,0.0
19.0,4778.552412368992,-24.687454844727846,23.95416729954359,0.0
19.1,4776.0755668845195,-24.849454844727845,23.95416729954359,0.0
19.200000000000003,4773.582521400047,-25.011454844727844,23.95416729954359,0.0
19.3,4771.073275915574,-25.173454844727843,23.95416729954359,0.0
19.400000000000002,4768.547830431102,-25.335454844727842,23.95416729954359,0.0
19.5,4766.006184946629,-25.49745484472784,23.95416729954359,0.0
19.6,4763.448339462157,-25.65945484472784,23.95416729954359,0.0
19.700000000000003,4760.874293977684,-25.82145484472784,23.95416729954359,0.0
19.8,4758.284048493211,-25.983454844727838,23.95416729954359,0.0
19.900000000000002,4755.6776030087385,-26.145454844727837,23.95416729954359,0.0
20.0,4753.054957524266,-26.307454844727836,23.95416729954359,0.0
20.1,4750.416112039793,-26.469454844727835,23.95416729954359,0.0
20.200000000000003,4747.76106655532,-26.631454844727834,23.95416729954359,0.0
20.3,4745.089821070847,-26.793454844727833,23.95416729954359,0.0
20.400000000000002,4742.402375586375,-26.955454844727832,23.95416729954359,0.0
20.5,4739.698730101902,-27.11745484472783,23.95416729954359,0.0
20.6,4736.978884617429,-27.27945484472783,23.95416729954359,0.0
20.700000000000003,4734.242839132956,-27.44145484472783,23.95416729954359,0.0
20.8,4731.490593648483,-27.60345484472783,23.95416729954359,0.0
20.900000000000002,4728.72214816401,-27.765454844727827,23.95416729954359,0.0
21.0,4725.937502679537,-27.927454844727826,23.95416729954359,0.0
21.1,4723.136657195064,-28.089454844727825,23.95416729954359,0.0
21.200000000000003,4720.319611710591,-28.251454844727824,23.95416729954359,0.0
21.3,4717.486366226118,-28.413454844727823,23.95416729954359,0.0
21.400000000000002,4714.636920741645,-28.575454844727822,23.95416729954359,0.0
21.5,4711.7712752571715,-28.73745484472782,23.95416729954359,0.0
21.6,4708.889429772698,-28.89945484472782,23.95416729954359,0.0
21.700000000000003,4705.991384288225,-29.06145484472782,23.95416729954359,0.0
21.8,4703.077138803752,-29.22345484472782,23.95416729954359,0.0
21.900000000000002,4700.14669331928,-29.385454844727818,23.95416729954359,0.0
22.0,4697.200047834807,-29.547454844727817,23.95416729954359,0.0
22.1,4694.237202350335,-29.709454844727816,23.95416729954359,0.0
22.200000000000003,4691.2581568658625,-29.871454844727815,23.95416729954359,0.0
22.3,4688.26291138139,-30.033454844727814,23.95416729954359,0.0
22.400000000000002,4685.251465896918,-30.195454844727813,23.95416729954359,0.0
22.5,4682.223820412445,-30.357454844727812,23.95416729954359,0.0
22.6,4679.179974927973,-30.51945484472781,23.95416729954359,0.0
22.700000000000003,4676.1199294435,-30.68145484472781,23.95416729954359,0.0
22.8,4673.0436839590275,-30.84345484472781,23.95416729954359,0.0
22.900000000000002,4669.951238474555,-31.005454844727808,23.95416729954359,0.0
23.0,4666.842592990082,-31.167454844727807,23.95416729954359,0.0
23.1,4663.71774750561,-31.329454844727806,23.95416729954359,0.0
23.200000000000003,4660.576702021137,-31.491454844727805,23.95416729954359,0.0
23.3,4657.419456536664,-31.653454844727804,23.95416729954359,0.0
23.400000000000002,4654.2460110521915,-31.815454844727803,23.95416729954359,0.0
23.5,4651.056365567719,-31.977454844727802,23.95416729954359,0.0
23.6,4647.850520083246,-32.1394548447278,23.95416729954359,0.0
23.700000000000003,4644.628474598773,-32.3014548447278,23.95416729954359,0.0
23.8,4641.3902291143,-32.4634548447278,23.95416729954359,0.0
23.900000000000002,4638.1357836298275,-32.6254548447278,23.95416729954359,0.0
24.0,4634.865138145355,-32.7874548447278,23.95416729954359,0.0
24.1,4631.578292660882,-32.949454844727796,23.95416729954359,0.0
24.200000000000003,4628.275247176409,-33.111454844727795,23.95416729954359,0.0
24.3,4624.956001691936,-33.273454844727794,23.95416729954359,0.0
24.400000000000002,4621.620556207463,-33.43545484472779,23.95416729954359,0.0
24.5,4618.26891072299,-33.59745484472779,23.95416729954359,0.0
24.6,4614.901065238517,-33.75945484472779,23.95416729954359,0.0
24.700000000000003,4611.517019754044,-33.92145484472779,23.95416729954359,0.0
24.8,4608.116774269571,-34.08345484472779,23.95416729954359,0.0
24.900000000000002,4604.700328785098,-34.24545484472779,23.95416729954359,0.0
25.0,4601.267683300624,-34.40745484472779,23.95416729954359,0.0
25.1,4597.818837816151,-34.56945484472779,23.95416729954359,0.0
25.200000000000003,4594.353792331678,-34.731454844727786,23.95416729954359,0.0
25.3,4590.872546847205,-34.893454844727785,23.95416729954359,0.0
25.400000000000002,4587.3751013627325,-35.055454844727784,23.95416729954359,0.0
25.5,4583.86145587826,-35.21745484472778,23.95416729954359,0.0
25.6,4580.331610393788,-35.37945484472778,23.95416729954359,0.0
25.700000000000003,4576.785564909315,-35.54145484472778,23.95416729954359,0.0
