Time[s],Pos[m],V[m/s],mass[kg],T[N]
0.0,5000.0,0.0,24.0,9.925581143886578
0.1,4999.993967838349,-0.12064314358628969,23.99968858723694,10.011284781772753
0.2,4999.9758892444825,-0.2409286427564053,23.99937448554249,9.799318350457972
0.30000000000000004,4999.945737966791,-0.362096823887652,23.999067034244735,9.92126087070157
0.4,4999.903495303039,-0.4827563617838403,23.998755757029222,9.937973884451342
0.5,4999.849190194396,-0.6033457213959681,23.998443955446852,9.976394377000759
0.6000000000000001,4999.782834181552,-0.7237744451241847,23.998130948430607,9.960222030623685
0.7000000000000001,4999.704431953915,-0.8442700175387375,23.99781844881791,9.866887297216465
0.8,4999.613960749389,-0.9651539845955455,23.997508877560417,9.851822142924686
0.9,4999.51139803575,-1.0861002000478996,23.997199778968582,9.937638723543357
1.0,4999.396758607701,-1.2066882712621922,23.996887987901808,9.960937239372642
1.1,4999.2700652539625,-1.3271787134070387,23.996575465849602,10.067704161194087
1.2000000000000002,4999.131345129517,-1.4472236834581629,23.996259594010453,9.918487248744746
1.3,4998.980589443707,-1.567889943408808,23.995948403816676,9.866890583273644
1.4000000000000001,4998.81775640749,-1.6887706925082964,23.995638832456084,9.991345347543163
1.5,4998.642861255901,-1.809132248619668,23.995325356356673,10.010420654194544
1.6,4998.4559339507305,-1.9294137637929385,23.995011281774023,9.836838493744642
1.7000000000000002,4998.256942350564,-2.050418151661595,23.99470265329064,9.958827304054036
1.8,4998.045875758141,-2.170913606721885,23.99439019743716,9.971817774240124
1.9000000000000001,4997.82276235424,-2.291354380985632,23.994077334010743,9.871734539859148
2.0,4997.587584044007,-2.412211735170319,23.99376761067216,10.01857834210049
2.1,4997.34035062558,-2.5324565421990957,23.993453280143978,9.924591349442672
2.2,4997.081073167665,-2.653092526633298,23.993141898435482,10.016779045829551
2.3000000000000003,4996.809751349574,-2.7733437440387756,23.992827624359794,9.954103909864493
2.4000000000000004,4996.526391375749,-2.893855642464796,23.992515316701688,9.988214733064565
2.5,4996.230987347783,-3.0142248262196247,23.992201938824564,9.944390984827388
2.6,4995.923537295636,-3.1347761268843177,23.99188993590719,9.891584737777801
2.7,4995.604021135258,-3.2555469917855238,23.991579589773334,9.902075999052512
2.8000000000000003,4995.272430101522,-3.376273593861624,23.99126891447864,10.017311486121931
2.9000000000000004,4994.928790450641,-3.4965193326057027,23.990954623697764,9.982881980366587
3.0,4994.573119077654,-3.616908036587766,23.990641413134497,9.949664429867354
3.1,4994.2054019383495,-3.737434659565245,23.990329244764027,9.929069475978023
3.2,4993.825627871348,-3.8580465908925423,23.99001772255537,9.998461141468017
3.3000000000000003,4993.433807100824,-3.9783687287548983,23.989704023199604,9.968191857090222
3.4000000000000004,4993.029947834902,-4.098816499411759,23.98939127353548,10.018753130717679
3.5,4992.614054357348,-4.219052960455959,23.989076937523347,9.948288048363489
3.6,4992.186122574015,-4.339582616290121,23.988764812336523,9.926097494477574
3.7,4991.746133226839,-4.460204237684983,23.988453383373084,9.968232797020548
3.8000000000000003,4991.294090526874,-4.5806496713317335,23.988140632424482,9.909434606541062
3.9000000000000004,4990.829991054848,-4.701339679964828,23.987829726255214,9.917411955076135
4.0,4990.353824271534,-4.821995896928527,23.98751856979852,9.930294269061847
4.1000000000000005,4989.865594578574,-4.94259787265903,23.98720700916227,9.966857008671898
4.2,4989.365312336292,-5.063046882701775,23.9868943013787,9.95351064535837
4.3,4988.852982438054,-5.18355099201247,23.98658201233413,9.983421110705304
4.4,4988.328608390784,-5.303929862790639,23.986268784855774,9.8974966080099
4.5,4987.792178572272,-5.424666418421927,23.98595825323839,9.965615058994695
4.6000000000000005,4987.243689324682,-5.545118443111948,23.985645584420702,9.87721116767092
4.7,4986.683136473044,-5.665938500965429,23.985335689254214,9.945040011179113
4.800000000000001,4986.110515781995,-5.786475230124888,23.985023665973788,9.789486384906347
4.9,4985.52580901748,-5.9076599730630655,23.98471652315163,10.037422971611743
5.0,4984.929035491622,-6.0278104525207095,23.984401601377648,10.070591267034665
5.1000000000000005,4984.320253859909,-6.147822089549311,23.984085638956238,9.943566872540952
5.2,4983.699444610945,-6.268362799859872,23.98377366189519,9.862668427115235
5.300000000000001,4983.066564452523,-6.389240280147904,23.98346422300375,10.027767158078392
5.4,4982.421630992183,-6.5094288352360286,23.98314960417864,9.86559477248157
5.5,4981.764644893815,-6.630293043651538,23.982840073473806,9.847469749147313
5.6000000000000005,4981.09556862237,-6.751232297092023,23.982531111437297,9.998592537925244
5.7,4980.414429959149,-6.871540876427013,23.982217407959,9.926962250811867
5.800000000000001,4979.721245531091,-6.992147595134327,23.981905951864032,9.911118809148498
5.9,4979.0159971548055,-7.112819841262853,23.981594992853307,9.829604213527427
6.0,4978.298664585314,-7.233831460711083,23.981286591343757,10.068173128613989
6.1000000000000005,4977.569280621307,-7.353847727265864,23.980970704790867,9.953018942007446
6.2,4976.827871048594,-7.474343636927595,23.98065843117337,9.856096198327677
6.300000000000001,4976.074391703239,-7.5952431818472075,23.980349198484056,9.925130149554699
6.4,4975.308836823874,-7.71585431586481,23.980037799870836,10.00543045550591
6.5,4974.5312376012835,-7.836130044914309,23.97972388185449,9.92609346005774
6.6000000000000005,4973.741594290438,-7.956736082392179,23.97941245301763,9.82867551776427
6.7,4972.939870089721,-8.07774784410503,23.97910408064569,9.947528578063654
6.800000000000001,4972.1260695220335,-8.198263419660002,23.978791979287067,9.930932235314295
6.9,4971.300213963128,-8.318847668750758,23.978480398634776,10.065501985025014
7.0,4970.462328066992,-8.438870161832499,23.978164595888387,10.081307675104584
7.1000000000000005,4969.612443245071,-8.558826184166062,23.977848297242204,9.916615734962365
7.2,4968.750528505828,-8.679468511240042,23.97753716576673,9.929596971339729
7.300000000000001,4967.876552267692,-8.80005616179568,23.977225627008032,9.955096534117548
7.4,4966.990522608906,-8.92053692379264,23.976913288206575,9.885703240668644
7.5,4966.092430429981,-9.04130656581308,23.976603126603305,9.997144098660737
7.6000000000000005,4965.182284553224,-9.16161087840919,23.976289468569448,9.932957561121938
7.7,4964.260094886946,-9.282182357415257,23.97597782437304,9.913481832319414
7.800000000000001,4963.325844038148,-9.402834529152306,23.97566679122302,9.994620976783763
7.9,4962.379544920287,-9.523147737187584,23.975353212351514,9.974094556596084
8.0,4961.4212102281135,-9.64354601578002,23.97504027749159,9.968095868705548
8.1,4960.4508344841925,-9.763968772241773,23.974727530839083,9.855950781698938
8.200000000000001,4959.468393103353,-9.884858756159113,23.97441830271218,9.927198403789545
8.3,4958.473877609857,-10.005451024119196,23.97410683920797,9.878209011082573
8.4,4957.467292699227,-10.126247099700207,23.973796912734382,9.87477284065094
8.5,4956.448627491015,-10.247056975815871,23.973487094069828,10.002968687034175
8.6,4955.417908059044,-10.367331572566894,23.973173253290884,9.798656698742738
8.700000000000001,4954.375118581713,-10.488457886699596,23.972865822752297,10.029936606366643
8.8,4953.3202647374455,-10.608618907115089,23.97255113586126,9.969002075450083
8.9,4952.2533821092575,-10.72903356622506,23.97223836077673,9.910402734078124
9.0,4951.174445819847,-10.849692132613901,23.97192742423269,9.881271619023945
9.1,4950.0834376244675,-10.970471686128171,23.9716174016705,9.94281841237006
9.200000000000001,4948.980364337933,-11.09099395460284,23.971305448092213,9.93181436415604
9.3,4947.865236556266,-11.211561588980729,23.970993839763338,9.940105619850609
9.4,4946.738053767541,-11.332094095607468,23.970681971298273,9.878504401572117
9.5,4945.598804905733,-11.452883051727218,23.970372035556878,9.914839622260468
9.600000000000001,4944.447484754217,-11.573519889140186,23.970060959806517,9.871395642036354
9.700000000000001,4943.284091883587,-11.694337434776081,23.96975124710077,10.000368798460403
9.8,4942.108644188548,-11.81461637498141,23.96943748789272,9.954638409938594
9.9,4940.9211590874,-11.935085557787426,23.9691251634648,9.919858914068493
10.0,4939.721619839905,-12.05569930255097,23.968813930235346,9.961839299063135
10.100000000000001,4938.510028002172,-12.176137361775776,23.968501379881232,9.899858853016566
10.200000000000001,4937.286379455941,-12.296833473633704,23.96819077414897,9.883780327701244
10.3,4936.05065797112,-12.41759613386229,23.96788067287664,10.117203230902716
10.4,4934.802908942318,-12.537384348997016,23.967563248015875,9.88997128877045
10.5,4933.543133715486,-12.65812009861359,23.967252952503603,9.96343899777101
10.600000000000001,4932.271300267222,-12.77854877630249,23.96694035195932,10.09649612689544
10.700000000000001,4930.987451737014,-12.898421735041579,23.96662357677905,9.9810521964859
10.8,4929.69159185425,-13.018775829549778,23.96631042362482,9.938474066425105
10.9,4928.383687706253,-13.139307040469117,23.96599860634936,10.03638435383601
11.0,4927.063750891235,-13.259429168183138,23.965683717161767,9.937569564715442
11.100000000000001,4925.731781274886,-13.379963068882637,23.965371928264833,9.930062111931395
11.200000000000001,4924.387756729115,-13.500527756765024,23.965060374912458,10.04122485680016
11.3,4923.03169893436,-13.620628046518096,23.96474533385523,9.946701015480206
11.4,4921.663611416563,-13.741122219346606,23.964433258461188,9.91124579572737
11.5,4920.283467110978,-13.861763802923166,23.964122295466286,9.90950353060683
11.600000000000001,4918.891258310349,-13.982412120222339,23.96381138713454,9.964392699121115
11.700000000000001,4917.486996157428,-14.102830847793884,23.963498756668105,9.944627308411034
11.8,4916.070688034775,-14.223331515202114,23.96318674633613,9.919020102345165
11.9,4914.642324529323,-14.343938504262296,23.962875539424196,9.959482195101502
12.0,4913.201908794578,-14.46437610030452,23.962563063023662,9.909851602002417
12.100000000000001,4911.7494389713775,-14.58502027427001,23.96225214377126,9.863370385451443
12.200000000000001,4910.284895058686,-14.705857890963328,23.961942682856044,9.972932582242542
12.3,4908.808290272813,-14.826237735916719,23.961629784452793,9.921702505389314
12.4,4907.319636839503,-14.946830840631364,23.961318493381096,9.93011748912712
12.5,4905.818925878585,-15.06738828791791,23.961006938291273,9.903190081337751
12.600000000000001,4904.306153580827,-15.18805757791746,23.960696228042508,9.949243077957782
12.700000000000001,4902.781323991063,-15.308534127212178,23.960384072891856,9.935677498201146
12.8,4901.244443942557,-15.429066752978356,23.960072343358064,9.882210270990816
12.9,4899.695499500786,-15.549821993490092,23.95976229134589,9.940564988051484
13.0,4898.134491739405,-15.67033314411995,23.959450408468257,9.947977701418846
13.100000000000001,4896.561434436907,-15.79081281569988,23.959138293018494,9.953111943706379
13.200000000000001,4894.976330265762,-15.911270516951292,23.958826016483094,9.877491409502971
13.3,4893.379164570077,-16.032043307883445,23.958516112524084,9.84619006053856
13.4,4891.7699150895,-16.152946215336527,23.958207190637502,9.840328286291141
13.5,4890.148574121329,-16.27387305985231,23.957898452662704,9.895646953686944
13.600000000000001,4888.515152040247,-16.394568472585217,23.957587979077786,9.876104298736857
13.700000000000001,4886.869656366026,-16.51534492297231,23.95727811863905,9.944152723796721
13.8,4885.212097275584,-16.63583679577011,23.956966123197056,9.945340933812988
13.9,4883.5424892728815,-16.756323168164425,23.956654090475254,10.014456232608891
14.0,4881.860847085174,-16.87652049460583,23.956339889277285,9.784086000789111
14.100000000000001,4880.167137110554,-16.997678910571956,23.9560329158909,10.007588090073028
14.200000000000001,4878.461357969301,-17.117903823230677,23.95571893017928,9.923994894588883
14.3,4876.743538916568,-17.238477141704937,23.955407567184416,9.883360255806705
14.4,4875.0136540775275,-17.35921955009158,23.95509747909174,9.897373570012737
14.5,4873.27169794929,-17.479902925399973,23.954786951334643,9.935060359007581
14.600000000000001,4871.517681376602,-17.600428438403164,23.954475241163447,9.942723237553222
14.700000000000001,4869.75161387908,-17.720921421955147,23.95416329057125,0.0
14.8,4867.971421736885,-17.882921421955146,23.95416329057125,0.0
14.9,4866.1750295946895,-18.044921421955145,23.95416329057125,0.0
15.0,4864.362437452494,-18.206921421955144,23.95416329057125,0.0
15.100000000000001,4862.533645310299,-18.368921421955143,23.95416329057125,0.0
15.200000000000001,4860.688653168104,-18.530921421955142,23.95416329057125,0.0
15.3,4858.827461025909,-18.69292142195514,23.95416329057125,0.0
15.4,4856.950068883713,-18.85492142195514,23.95416329057125,0.0
15.5,4855.056476741518,-19.01692142195514,23.95416329057125,0.0
15.600000000000001,4853.146684599323,-19.17892142195514,23.95416329057125,0.0
15.700000000000001,4851.220692457127,-19.340921421955137,23.95416329057125,0.0
15.8,4849.278500314932,-19.502921421955136,23.95416329057125,0.0
15.9,4847.320108172737,-19.664921421955135,23.95416329057125,0.0
16.0,4845.345516030541,-19.826921421955134,23.95416329057125,0.0
16.1,4843.354723888346,-19.988921421955133,23.95416329057125,0.0
16.2,4841.34773174615,-20.150921421955132,23.95416329057125,0.0
16.3,4839.324539603955,-20.31292142195513,23.95416329057125,0.0
16.400000000000002,4837.285147461759,-20.47492142195513,23.95416329057125,0.0
16.5,4835.229555319564,-20.63692142195513,23.95416329057125,0.0
16.6,4833.157763177368,-20.79892142195513,23.95416329057125,0.0
16.7,4831.069771035172,-20.960921421955128,23.95416329057125,0.0
16.8,4828.965578892977,-21.122921421955127,23.95416329057125,0.0
16.900000000000002,4826.845186750781,-21.284921421955126,23.95416329057125,0.0
17.0,4824.708594608585,-21.446921421955125,23.95416329057125,0.0
17.1,4822.55580246639,-21.608921421955124,23.95416329057125,0.0
17.2,4820.386810324194,-21.770921421955123,23.95416329057125,0.0
17.3,4818.201618181998,-21.932921421955122,23.95416329057125,0.0
17.400000000000002,4816.000226039802,-22.09492142195512,23.95416329057125,0.0
17.5,4813.7826338976065,-22.25692142195512,23.95416329057125,0.0
17.6,4811.548841755411,-22.41892142195512,23.95416329057125,0.0
17.7,4809.298849613215,-22.580921421955118,23.95416329057125,0.0
17.8,4807.032657471019,-22.742921421955117,23.95416329057125,0.0
17.900000000000002,4804.750265328823,-22.904921421955116,23.95416329057125,0.0
18.0,4802.451673186627,-23.066921421955115,23.95416329057125,0.0
18.1,4800.136881044432,-23.228921421955114,23.95416329057125,0.0
18.2,4797.805888902237,-23.390921421955113,23.95416329057125,0.0
18.3,4795.458696760042,-23.552921421955112,23.95416329057125,0.0
18.400000000000002,4793.0953046178465,-23.71492142195511,23.95416329057125,0.0
18.5,4790.715712475651,-23.87692142195511,23.95416329057125,0.0
18.6,4788.319920333456,-24.03892142195511,23.95416329057125,0.0
18.7,4785.907928191261,-24.20092142195511,23.95416329057125,0.0
18.8,4783.479736049066,-24.362921421955107,23.95416329057125,0.0
18.900000000000002,4781.03534390687,-24.524921421955106,23.95416329057125,0.0
19.0,4778.574751764675,-24.686921421955105,23.95416329057125,0.0
19.1,4776.09795962248,-24.848921421955104,23.95416329057125,0.0
19.200000000000003,4773.604967480284,-25.010921421955103,23.95416329057125,0.0
19.3,4771.095775338089,-25.172921421955103,23.95416329057125,0.0
19.400000000000002,4768.570383195894,-25.3349214219551,23.95416329057125,0.0
19.5,4766.028791053698,-25.4969214219551,23.95416329057125,0.0
19.6,4763.470998911503,-25.6589214219551,23.95416329057125,0.0
19.700000000000003,4760.897006769307,-25.8209214219551,23.95416329057125,0.0
19.8,4758.306814627112,-25.982921421955098,23.95416329057125,0.0
19.900000000000002,4755.700422484916,-26.144921421955097,23.95416329057125,0.0
20.0,4753.0778303427205,-26.306921421955096,23.95416329057125,0.0
20.1,4750.439038200525,-26.468921421955095,23.95416329057125,0.0
20.200000000000003,4747.784046058329,-26.630921421955094,23.95416329057125,0.0
20.3,4745.112853916134,-26.792921421955093,23.95416329057125,0.0
20.400000000000002,4742.425461773938,-26.954921421955092,23.95416329057125,0.0
20.5,4739.721869631742,-27.11692142195509,23.95416329057125,0.0
20.6,4737.0020774895465,-27.27892142195509,23.95416329057125,0.0
20.700000000000003,4734.266085347351,-27.44092142195509,23.95416329057125,0.0
20.8,4731.513893205155,-27.602921421955088,23.95416329057125,0.0
20.900000000000002,4728.745501062959,-27.764921421955087,23.95416329057125,0.0
21.0,4725.960908920763,-27.926921421955086,23.95416329057125,0.0
21.1,4723.1601167785675,-28.088921421955085,23.95416329057125,0.0
21.200000000000003,4720.343124636372,-28.250921421955084,23.95416329057125,0.0
21.3,4717.509932494176,-28.412921421955083,23.95416329057125,0.0
21.400000000000002,4714.66054035198,-28.574921421955082,23.95416329057125,0.0
21.5,4711.794948209785,-28.73692142195508,23.95416329057125,0.0
21.6,4708.91315606759,-28.89892142195508,23.95416329057125,0.0
21.700000000000003,4706.0151639253945,-29.06092142195508,23.95416329057125,0.0
21.8,4703.100971783199,-29.22292142195508,23.95416329057125,0.0
21.900000000000002,4700.170579641004,-29.384921421955077,23.95416329057125,0.0
22.0,4697.223987498809,-29.546921421955076,23.95416329057125,0.0
22.1,4694.261195356614,-29.708921421955075,23.95416329057125,0.0
22.200000000000003,4691.282203214419,-29.870921421955074,23.95416329057125,0.0
22.3,4688.287011072223,-30.032921421955074,23.95416329057125,0.0
22.400000000000002,4685.275618930028,-30.194921421955073,23.95416329057125,0.0
22.5,4682.248026787833,-30.35692142195507,23.95416329057125,0.0
22.6,4679.204234645637,-30.51892142195507,23.95416329057125,0.0
22.700000000000003,4676.144242503442,-30.68092142195507,23.95416329057125,0.0
22.8,4673.068050361247,-30.84292142195507,23.95416329057125,0.0
22.900000000000002,4669.975658219051,-31.004921421955068,23.95416329057125,0.0
23.0,4666.867066076856,-31.166921421955067,23.95416329057125,0.0
23.1,4663.74227393466,-31.328921421955066,23.95416329057125,0.0
23.200000000000003,4660.601281792465,-31.490921421955065,23.95416329057125,0.0
23.3,4657.444089650269,-31.652921421955064,23.95416329057125,0.0
23.400000000000002,4654.270697508074,-31.814921421955063,23.95416329057125,0.0
23.5,4651.081105365878,-31.976921421955062,23.95416329057125,0.0
23.6,4647.8753132236825,-32.13892142195506,23.95416329057125,0.0
23.700000000000003,4644.653321081487,-32.30092142195506,23.95416329057125,0.0
23.8,4641.415128939291,-32.46292142195506,23.95416329057125,0.0
23.900000000000002,4638.1607367970955,-32.62492142195506,23.95416329057125,0.0
24.0,4634.8901446549,-32.78692142195506,23.95416329057125,0.0
24.1,4631.603352512704,-32.948921421955056,23.95416329057125,0.0
24.200000000000003,4628.300360370508,-33.110921421955055,23.95416329057125,0.0
24.3,4624.9811682283125,-33.272921421955054,23.95416329057125,0.0
24.400000000000002,4621.645776086117,-33.43492142195505,23.95416329057125,0.0
24.5,4618.294183943921,-33.59692142195505,23.95416329057125,0.0
24.6,4614.926391801725,-33.75892142195505,23.95416329057125,0.0
24.700000000000003,4611.542399659529,-33.92092142195505,23.95416329057125,0.0
24.8,4608.142207517333,-34.08292142195505,23.95416329057125,0.0
24.900000000000002,4604.725815375137,-34.24492142195505,23.95416329057125,0.0
25.0,4601.293223232942,-34.40692142195505,23.95416329057125,0.0
25.1,4597.844431090747,-34.56892142195505,23.95416329057125,0.0
25.200000000000003,4594.379438948552,-34.730921421955046,23.95416329057125,0.0
25.3,4590.898246806357,-34.892921421955045,23.95416329057125,0.0
25.400000000000002,4587.400854664162,-35.054921421955044,23.95416329057125,0.0
25.5,4583.8872625219665,-35.21692142195504,23.95416329057125,0.0
25.6,4580.357470379771,-35.37892142195504,23.95416329057125,0.0
25.700000000000003,4576.811478237576,-35.54092142195504,23.95416329057125,0.0
