Time[s],Pos[m],V[m/s],mass[kg],T[N]
0.0,5000.0,0.0,24.0,9.960390258904088
0.1,4999.99397509031,-0.12049810372178066,23.99968749510918,9.974692597439187
0.2,4999.975903376988,-0.2409360724055199,23.999374541485867,10.009543102219707
0.30000000000000004,4999.945795154669,-0.36122828299583853,23.9990604944362,9.739781943076348
0.4,4999.903601535656,-0.4826440111454628,23.99875491107916,9.847780714079201
0.5,4999.84928887077,-0.6036091985324674,23.9984459392862,9.864525013760499
0.6000000000000001,4999.782883202211,-0.7245040842745255,23.998136442144794,9.895489983366405
0.7000000000000001,4999.704394523177,-0.8452694074997891,23.997825973484783,10.072239359669265
0.8,4999.613866164937,-0.9652976651875402,23.997509959354854,9.874601737884428
0.9,4999.511293829428,-1.0861489564388742,23.99720014605861,10.0566186914376
1.0,4999.396674316309,-1.2062412140986327,23.996884622023458,9.965290206415283
1.1,4999.270026575572,-1.3267135104675367,23.99657196339794,9.965607931199798
1.2000000000000002,4999.131331698454,-1.4471839416962102,23.996259294803885,9.852730815829567
1.3,4998.980566285335,-1.5681242325212734,23.995950167702652,9.963383946770685
1.4000000000000001,4998.817729926407,-1.6886028558933623,23.99563756888558,9.985791743823073
1.5,4998.6428504013675,-1.80898755433676,23.995324267029172,9.920520760825937
1.6,4998.455918832763,-1.929643728378336,23.995013013034434,9.883067170538265
1.7000000000000002,4998.256913869049,-2.0504554572014224,23.99470293413724,9.811770164926134
1.8,4998.045812902116,-2.1715637940170773,23.99439509216675,9.944762367298678
1.9000000000000001,4997.822628841153,-2.2921173354223363,23.994083077597338,9.880318758447766
2.0,4997.587376023819,-2.4129389225958833,23.993773084930925,9.939038009579003
2.1,4997.340053310826,-2.533515247539486,23.993461249961882,9.971962115715645
2.2,4997.080679853375,-2.6539538111623946,23.993148382006787,9.894162422222918
2.3000000000000003,4996.80924635362,-2.774716094997203,23.99283795499869,9.896334820197463
2.4000000000000004,4996.525737104882,-2.8954687908044257,23.992527459832125,9.971225441646956
2.5,4996.23016822046,-3.01590880731534,23.992214614990008,9.835813695672506
2.6,4995.922527141304,-3.1369126879078264,23.99190601865942,9.814275908662937
2.7,4995.602781211865,-3.258005813391442,23.99159809807181,10.008757864545707
2.8000000000000003,4995.270966527741,-3.3782877780785565,23.991284075658793,9.915562735060762
2.9000000000000004,4994.927104251577,-3.49895765588663,23.99097297722094,10.004548784235805
3.0,4994.571193560325,-3.6192560782036716,23.990659086866824,9.928743136130917
3.1,4994.203237254993,-3.739869938866238,23.990347574897,9.933413215112973
3.2,4993.823220563798,-3.8604637953865657,23.990035916404555,9.95591594776905
3.3000000000000003,4993.431149203903,-3.980963312440261,23.989723551894187,9.962807027014506
3.4000000000000004,4993.027029355591,-4.101433563618449,23.989410971177836,9.89563545237463
3.5,4992.610848508842,-4.222183282400869,23.98910049795377,10.008186264336908
3.6,4992.18261617585,-4.3424632864107675,23.988786493474574,9.965067186011368
3.7,4991.742346882344,-4.462922493474677,23.98847384184627,9.907588295945017
3.8000000000000003,4991.2900197145755,-4.5836207726805975,23.98816299360456,9.956674419013481
3.9000000000000004,4990.8256329770575,-4.704113887584241,23.98785060529734,10.001447000535517
4.0,4990.349206287503,-4.824419812605212,23.987536812260952,10.02738506944832
4.1000000000000005,4989.860754439336,-4.944617059345334,23.98722220542378,9.9495505136785
4.2,4989.360266669598,-5.065138245459595,23.986910040627404,10.046335315669397
4.3,4988.847746982918,-5.185255396412091,23.986594839230737,9.867829598778966
4.4,4988.323178398864,-5.306116196168346,23.986285238408755,9.996984497708054
4.5,4987.786550684274,-5.426438004814661,23.985971585382337,9.876073878290995
4.6000000000000005,4987.237865611405,-5.547263363899918,23.985661725898034,9.847526705295921
4.7,4986.67709207829,-5.668207210259886,23.985352762074537,9.944732899692418
4.800000000000001,4986.104244450814,-5.788745249362463,23.98504074842966,10.034448479769123
4.9,4985.519361748962,-5.908908696146449,23.98472591997966,9.861152363101695
5.0,4984.922426603227,-6.029794130157291,23.98441652865437,9.973231816636655
5.1000000000000005,4984.313426305869,-6.15021172659057,23.98410362086271,10.043231669823767
5.2,4983.692398869089,-6.270336917328005,23.9837885168422,9.876564063433197
5.300000000000001,4983.059324194553,-6.391156484718121,23.983478641978454,9.913525601933243
5.4,4982.414175295572,-6.511821405544479,23.983167607455172,10.035968808224945
5.5,4981.756985458439,-6.6319752455441705,23.982852731305226,9.925185133365467
5.6000000000000005,4981.087757168141,-6.752590470843397,23.9825413309669,9.965737520335647
5.7,4980.4064758368195,-6.873036065296553,23.982228658307015,9.904869933322173
5.800000000000001,4979.713137282887,-6.993734924151971,23.98191789535329,10.061253827242265
5.9,4979.007761474655,-7.113781148440955,23.981602225891848,9.896711118785275
6.0,4978.290346765279,-7.234512950027776,23.981291718919003,9.880830705703627
6.1000000000000005,4977.560855591431,-7.355310438139154,23.980981710190363,9.880788854593186
6.2,4976.81928468668,-7.476107568131091,23.980671702774792,10.030619090464127
6.300000000000001,4976.065665335623,-7.596279361509726,23.980356994470977,9.964149736594779
6.4,4975.300014973429,-7.716727792077785,23.980044371627432,9.828729580689165
6.5,4974.522291559009,-7.837740408461078,23.97973599755928,9.91675335072383
6.6000000000000005,4973.732485263246,-7.958385417367922,23.979424861766145,9.904320661931086
6.7,4972.930611901033,-8.079081737676379,23.97911411604568,9.960741628491121
6.800000000000001,4972.116680698261,-8.19954222754595,23.97880160013072,9.97220937168191
6.9,4971.290705864817,-8.31995435089847,23.97848872441803,10.106080704023352
7.0,4970.452717761295,-8.43980762664545,23.97817164852392,9.981061814873922
7.1000000000000005,4969.602718288525,-8.560181738159143,23.977858495067913,9.982811557708967
7.2,4968.740681796654,-8.680548008607925,23.97754528671414,9.98170316746271
7.300000000000001,4967.866608473798,-8.80091835788772,23.977232113135848,9.97317093432104
7.4,4966.980496363949,-8.921323748620923,23.976919207254355,10.01487332316601
7.5,4966.082352438605,-9.041554667034788,23.976604992970266,9.821914686810738
7.6000000000000005,4965.1721452095,-9.162589827314976,23.9762968327178,9.862649202730923
7.7,4964.249842985512,-9.2834545639513,23.97598739442952,9.969863188788317
7.800000000000001,4963.315476673217,-9.40387159153344,23.975674592327763,9.927324275743532
7.9,4962.369059813947,-9.524465504205649,23.975363124874352,9.934848541300092
8.0,4961.410585159486,-9.645027495231345,23.975051421348887,9.777914050831905
8.1,4960.44002160387,-9.766243530110293,23.974744641605977,9.852047244629372
8.200000000000001,4959.457351931677,-9.887149825449303,23.974435535951628,9.919091633187062
8.3,4958.462605639037,-10.007775937842585,23.97412432679543,9.992683868515568
8.4,4957.455812110408,-10.128094543887164,23.97381080870024,9.933870124910484
8.5,4956.436974482074,-10.248657933005202,23.973499135872355,9.958837691730682
8.6,4955.406085749136,-10.369116635530837,23.97318667969296,9.913543207114882
8.700000000000001,4954.363141726029,-10.489763737183532,23.97287564461732,10.007961503229483
8.8,4953.30815271249,-10.610016442472414,23.972561647189952,9.93608178062314
8.9,4952.241123463549,-10.730568446499156,23.972249904971893,9.87622394653202
9.0,4951.162026556231,-10.851369611112242,23.971940040779234,9.851085018941385
9.1,4950.070844315625,-10.972275112674376,23.97163096531449,9.85123914737365
9.200000000000001,4948.967571583506,-11.09317944141581,23.971321885014,9.995470888578113
9.3,4947.852238529494,-11.213481547907396,23.971008279476713,9.76532977544716
9.4,4946.724827287641,-11.334743202361816,23.97070189456247,10.03413544043095
9.5,4945.58534597649,-11.45488292903031,23.970387075934006,9.820093100384332
9.600000000000001,4944.433806072531,-11.575915062382832,23.970078972833385,9.863625704849973
9.700000000000001,4943.270172062258,-11.696765054535925,23.96976950390758,9.888561991190329
9.8,4942.09445828099,-11.817510481828668,23.96945925261169,9.897557199501945
9.9,4940.906671860097,-11.938217846859033,23.96914871909326,9.85808010268317
10.0,4939.706806494398,-12.059089378666496,23.968839424159412,9.950798969576406
10.100000000000001,4938.494873343764,-12.17957354387506,23.968527220193028,9.838720423975127
10.200000000000001,4937.270868423089,-12.300524781512944,23.96821853266453,9.94519584731305
10.3,4936.034790617069,-12.421031248859881,23.96790650449478,9.886378445611317
10.4,4934.786649921184,-12.541782579865654,23.967596321707113,9.887747023133498
10.5,4933.526434404399,-12.662527666847977,23.96728609598065,9.938023285982466
10.600000000000001,4932.254154894224,-12.783062446750668,23.96697429284832,9.854390395106696
10.700000000000001,4930.969804485352,-12.903945642279936,23.96666511367818,10.00344932890741
10.8,4929.673396880855,-13.024206356558711,23.966351257819213,9.892991471815117
10.9,4928.364940187697,-13.144927417481028,23.96604086754941,9.954906375453024
11.0,4927.044424332506,-13.265389596116462,23.965728534714138,9.993145730283427
11.100000000000001,4925.711870264513,-13.385691672833055,23.965415002128143,9.870116448795136
11.200000000000001,4924.367260347813,-13.506506572481003,23.965105329556785,9.886382216516125
11.3,4923.0105723614215,-13.627253066346302,23.964795146650808,9.889571447777897
11.4,4921.6418104177465,-13.747985718095782,23.964484863683452,9.81573621876445
11.5,4920.260959830344,-13.869025942219483,23.96417689727896,10.053103432033643
11.600000000000001,4918.8680547727035,-13.989075118560473,23.96386148353424,9.914630011857314
11.700000000000001,4917.463115932651,-14.109701592975078,23.96355041436036,9.997668676028477
11.8,4916.046131798196,-14.229981005095908,23.96323673986801,9.995075854197577
11.9,4914.61711920883,-14.350270691238126,23.962923146724833,9.956828547137356
12.0,4913.176069697556,-14.470719443971939,23.962610753581878,9.914861332882356
12.100000000000001,4911.722966581205,-14.59134279352477,23.96229967715035,9.925770484251409
12.200000000000001,4910.257803433091,-14.711920079022555,23.96198825844678,9.828076433317209
12.3,4908.780562197955,-14.832904535721655,23.961679904870973,9.785594316295555
12.4,4907.291213678869,-14.954065758778508,23.96137288416155,10.022498963952776
12.5,4905.789798498768,-15.074237751771676,23.96105843062478,9.884579475668508
12.600000000000001,4904.2763373666385,-15.194984801813064,23.96074830427937,9.880758961510825
12.700000000000001,4902.750800758951,-15.315747263002956,23.96043829780169,9.873947420680967
12.8,4901.213186510397,-15.436537619296345,23.960128505034493,9.975793877405188
12.9,4899.663514506357,-15.556902370837001,23.959815516858782,9.928840060509453
13.0,4898.101796255823,-15.677462550070041,23.959504001847982,9.939367549798856
13.100000000000001,4896.528024211257,-15.797978251260716,23.959192156539693,9.86901868984801
13.200000000000001,4894.942185942467,-15.918787035808379,23.95888251841026,9.908317504266854
13.3,4893.344275023215,-16.03943125981017,23.958571647289812,9.84257221651075
13.4,4891.734285987655,-16.16034936313571,23.958262838912233,9.712741672487512
13.5,4890.112178072858,-16.281808846870025,23.957958103937294,10.068064041671533
13.600000000000001,4888.477998391506,-16.401784687833796,23.95764222080698,9.995110420916381
13.700000000000001,4886.8318059280855,-16.522064489556332,23.957328626579283,9.86988898595393
13.8,4885.173559377306,-16.642866437269294,23.957018961144517,9.885547004419527
13.9,4883.5032359263505,-16.763602492819295,23.95670880444312,9.955165099366294
14.0,4881.820853426655,-16.884047410785527,23.956396463490446,10.048653964210013
14.100000000000001,4880.12644597472,-17.004101535904393,23.956081189346726,10.031315799681822
14.200000000000001,4878.420029519103,-17.124227484736867,23.955766459183824,9.91212864149359
14.3,4876.701575619387,-17.24485042006256,23.955455468489845,9.929664698269095
14.4,4874.971063113167,-17.365399614505666,23.95514392760623,9.955135467315035
14.5,4873.228501030848,-17.485841941555908,23.954831587583254,9.851142308693563
14.600000000000001,4871.473873036637,-17.60671785422758,23.954522510321056,9.929730557478452
14.700000000000001,4869.707173881467,-17.727265159335353,23.95421096737112,0.0
14.8,4867.926347365533,-17.889265159335352,23.95421096737112,0.0
14.9,4866.129320849599,-18.05126515933535,23.95421096737112,0.0
15.0,4864.316094333665,-18.21326515933535,23.95421096737112,0.0
15.100000000000001,4862.486667817731,-18.37526515933535,23.95421096737112,0.0
15.200000000000001,4860.6410413017975,-18.537265159335348,23.95421096737112,0.0
15.3,4858.779214785864,-18.699265159335347,23.95421096737112,0.0
15.4,4856.90118826993,-18.861265159335346,23.95421096737112,0.0
15.5,4855.006961753996,-19.023265159335345,23.95421096737112,0.0
15.600000000000001,4853.096535238062,-19.185265159335344,23.95421096737112,0.0
15.700000000000001,4851.169908722129,-19.347265159335343,23.95421096737112,0.0
15.8,4849.2270822061955,-19.509265159335342,23.95421096737112,0.0
15.9,4847.268055690262,-19.67126515933534,23.95421096737112,0.0
16.0,4845.292829174329,-19.83326515933534,23.95421096737112,0.0
16.1,4843.301402658396,-19.99526515933534,23.95421096737112,0.0
16.2,4841.293776142463,-20.15726515933534,23.95421096737112,0.0
16.3,4839.2699496265295,-20.319265159335338,23.95421096737112,0.0
16.400000000000002,4837.229923110596,-20.481265159335337,23.95421096737112,0.0
16.5,4835.173696594663,-20.643265159335336,23.95421096737112,0.0
16.6,4833.10127007873,-20.805265159335335,23.95421096737112,0.0
16.7,4831.012643562796,-20.967265159335334,23.95421096737112,0.0
16.8,4828.907817046863,-21.129265159335333,23.95421096737112,0.0
16.900000000000002,4826.7867905309295,-21.29126515933533,23.95421096737112,0.0
17.0,4824.649564014996,-21.45326515933533,23.95421096737112,0.0
17.1,4822.496137499063,-21.61526515933533,23.95421096737112,0.0
17.2,4820.326510983129,-21.77726515933533,23.95421096737112,0.0
17.3,4818.140684467196,-21.939265159335328,23.95421096737112,0.0
17.400000000000002,4815.938657951262,-22.101265159335327,23.95421096737112,0.0
17.5,4813.7204314353285,-22.263265159335326,23.95421096737112,0.0
17.6,4811.486004919395,-22.425265159335325,23.95421096737112,0.0
17.7,4809.235378403461,-22.587265159335324,23.95421096737112,0.0
17.8,4806.968551887528,-22.749265159335323,23.95421096737112,0.0
17.900000000000002,4804.685525371594,-22.911265159335322,23.95421096737112,0.0
18.0,4802.38629885566,-23.07326515933532,23.95421096737112,0.0
18.1,4800.0708723397265,-23.23526515933532,23.95421096737112,0.0
18.2,4797.739245823793,-23.39726515933532,23.95421096737112,0.0
18.3,4795.391419307859,-23.559265159335318,23.95421096737112,0.0
18.400000000000002,4793.027392791925,-23.721265159335317,23.95421096737112,0.0
18.5,4790.647166275991,-23.883265159335316,23.95421096737112,0.0
18.6,4788.2507397600575,-24.045265159335315,23.95421096737112,0.0
18.7,4785.838113244124,-24.207265159335314,23.95421096737112,0.0
18.8,4783.40928672819,-24.369265159335313,23.95421096737112,0.0
18.900000000000002,4780.964260212256,-24.531265159335312,23.95421096737112,0.0
19.0,4778.503033696322,-24.69326515933531,23.95421096737112,0.0
19.1,4776.025607180388,-24.85526515933531,23.95421096737112,0.0
19.200000000000003,4773.531980664455,-25.01726515933531,23.95421096737112,0.0
19.3,4771.022154148522,-25.17926515933531,23.95421096737112,0.0
19.400000000000002,4768.4961276325885,-25.341265159335308,23.95421096737112,0.0
19.5,4765.953901116655,-25.503265159335307,23.95421096737112,0.0
19.6,4763.395474600722,-25.665265159335306,23.95421096737112,0.0
19.700000000000003,4760.820848084789,-25.827265159335305,23.95421096737112,0.0
19.8,4758.230021568856,-25.989265159335304,23.95421096737112,0.0
19.900000000000002,4755.622995052922,-26.151265159335303,23.95421096737112,0.0
20.0,4752.999768536989,-26.3132651593353,23.95421096737112,0.0
20.1,4750.360342021056,-26.4752651593353,23.95421096737112,0.0
20.200000000000003,4747.704715505122,-26.6372651593353,23.95421096737112,0.0
20.3,4745.032888989189,-26.7992651593353,23.95421096737112,0.0
20.400000000000002,4742.3448624732555,-26.961265159335298,23.95421096737112,0.0
20.5,4739.640635957322,-27.123265159335297,23.95421096737112,0.0
20.6,4736.920209441389,-27.285265159335296,23.95421096737112,0.0
20.700000000000003,4734.183582925455,-27.447265159335295,23.95421096737112,0.0
20.8,4731.430756409522,-27.609265159335294,23.95421096737112,0.0
20.900000000000002,4728.661729893588,-27.771265159335293,23.95421096737112,0.0
21.0,4725.876503377654,-27.933265159335292,23.95421096737112,0.0
21.1,4723.075076861721,-28.09526515933529,23.95421096737112,0.0
21.200000000000003,4720.257450345787,-28.25726515933529,23.95421096737112,0.0
21.3,4717.423623829854,-28.41926515933529,23.95421096737112,0.0
21.400000000000002,4714.57359731392,-28.581265159335288,23.95421096737112,0.0
21.5,4711.707370797986,-28.743265159335287,23.95421096737112,0.0
21.6,4708.8249442820525,-28.905265159335286,23.95421096737112,0.0
21.700000000000003,4705.926317766119,-29.067265159335285,23.95421096737112,0.0
21.8,4703.011491250185,-29.229265159335284,23.95421096737112,0.0
21.900000000000002,4700.080464734251,-29.391265159335283,23.95421096737112,0.0
22.0,4697.133238218317,-29.553265159335282,23.95421096737112,0.0
22.1,4694.169811702383,-29.71526515933528,23.95421096737112,0.0
22.200000000000003,4691.1901851864495,-29.87726515933528,23.95421096737112,0.0
22.3,4688.194358670516,-30.03926515933528,23.95421096737112,0.0
22.400000000000002,4685.182332154582,-30.20126515933528,23.95421096737112,0.0
22.5,4682.154105638648,-30.363265159335278,23.95421096737112,0.0
22.6,4679.109679122715,-30.525265159335277,23.95421096737112,0.0
22.700000000000003,4676.0490526067815,-30.687265159335276,23.95421096737112,0.0
22.8,4672.972226090848,-30.849265159335275,23.95421096737112,0.0
22.900000000000002,4669.879199574915,-31.011265159335274,23.95421096737112,0.0
23.0,4666.769973058982,-31.173265159335273,23.95421096737112,0.0
23.1,4663.644546543049,-31.335265159335272,23.95421096737112,0.0
23.200000000000003,4660.502920027116,-31.49726515933527,23.95421096737112,0.0
23.3,4657.345093511182,-31.65926515933527,23.95421096737112,0.0
23.400000000000002,4654.171066995249,-31.82126515933527,23.95421096737112,0.0
23.5,4650.980840479316,-31.983265159335268,23.95421096737112,0.0
23.6,4647.774413963382,-32.14526515933527,23.95421096737112,0.0
23.700000000000003,4644.551787447449,-32.307265159335266,23.95421096737112,0.0
23.8,4641.312960931516,-32.469265159335265,23.95421096737112,0.0
23.900000000000002,4638.057934415582,-32.631265159335264,23.95421096737112,0.0
24.0,4634.786707899649,-32.79326515933526,23.95421096737112,0.0
24.1,4631.499281383715,-32.95526515933526,23.95421096737112,0.0
24.200000000000003,4628.195654867782,-33.11726515933526,23.95421096737112,0.0
24.3,4624.875828351848,-33.27926515933526,23.95421096737112,0.0
24.400000000000002,4621.539801835915,-33.44126515933526,23.95421096737112,0.0
24.5,4618.187575319981,-33.60326515933526,23.95421096737112,0.0
24.6,4614.8191488040475,-33.76526515933526,23.95421096737112,0.0
24.700000000000003,4611.434522288114,-33.927265159335256,23.95421096737112,0.0
24.8,4608.03369577218,-34.089265159335255,23.95421096737112,0.0
24.900000000000002,4604.6166692562465,-34.251265159335254,23.95421096737112,0.0
25.0,4601.183442740313,-34.41326515933525,23.95421096737112,0.0
25.1,4597.734016224379,-34.57526515933525,23.95421096737112,0.0
25.200000000000003,4594.268389708445,-34.73726515933525,23.95421096737112,0.0
25.3,4590.7865631925115,-34.89926515933525,23.95421096737112,0.0
25.400000000000002,4587.288536676578,-35.06126515933525,23.95421096737112,0.0
25.5,4583.774310160644,-35.22326515933525,23.95421096737112,0.0
25.6,4580.24388364471,-35.38526515933525,23.95421096737112,0.0
25.700000000000003,4576.697257128776,-35.54726515933525,23.95421096737112,0.0
