Time[s],Pos[m],V[m/s],mass[kg],T[N]
0.0,5000.0,0.0,24.0,9.906225680889126
0.1,4999.993963805926,-0.12072379239421993,23.999689194510015,9.934959280114688
0.2,4999.975861245635,-0.24132732380840116,23.999377487510145,9.8873326741851
0.30000000000000004,4999.945688436534,-0.3621287694665324,23.999067274783783,9.827732108394649
0.4,4999.903423092119,-0.48317803113022595,23.99875893201109,9.95804352034683
0.5,4999.849079997694,-0.6036837673258971,23.998446500748635,9.859840413004722
0.6000000000000001,4999.7826658961785,-0.7245981747146939,23.99813715058547,9.957550781152776
0.7000000000000001,4999.704180738488,-0.8451048890708904,23.997824734782593,9.834973822002038
0.8,4999.613619396969,-0.9661218534770231,23.997516164802846,9.926912647161872
0.9,4999.510975541428,-1.086755167865322,23.99720471026418,9.86533871613217
1.0,4999.3962555517855,-1.2076445366116275,23.996895187593054,9.881757685836087
1.1,4999.269450072872,-1.3284649529827304,23.996585149780632,9.919677285826927
1.2000000000000002,4999.1305704800325,-1.44912681444392,23.99627392224972,9.982334128521169
1.3,4998.979637783504,-1.5695270256396332,23.995960728875176,10.008389352196941
1.4000000000000001,4998.816670522136,-1.6898181107489885,23.995646718024144,9.988111282416376
1.5,4998.641669954146,-1.8101931584359665,23.995333343392762,9.848915709668727
1.6,4998.4546029036,-1.9311477643774173,23.995024335989584,9.962653183986054
1.7000000000000002,4998.255464119315,-2.0516278311809573,23.994711760100024,9.950660488474051
1.8,4998.044274856343,-2.1721573383346042,23.994399560478453,9.872507019722162
1.9000000000000001,4997.821016383721,-2.2930120255782693,23.994089812903496,9.88657681629262
2.0,4997.585675400887,-2.4138075423100473,23.993779623891996,9.938990078783732
2.1,4997.3382658153705,-2.5343840783088263,23.99346779042677,9.952444644642416
2.2,4997.078801406994,-2.654903999257108,23.993155534827718,10.033807359655846
2.3000000000000003,4996.807301989063,-2.7750842679123298,23.99284072649271,10.064016245120298
2.4000000000000004,4996.5237908671525,-2.895138078280913,23.992524970361057,9.931958489262085
2.5,4996.228246870964,-3.015741755885495,23.99221335751029,9.98480764144946
2.6,4995.920653547806,-3.1361246166911414,23.991900086529864,9.892412766660325
2.7,4995.601002710141,-3.2568920477061187,23.9915897144168,9.94407299431321
2.8000000000000003,4995.269285922459,-3.3774436161060732,23.9912777214763,10.044344081945306
2.9000000000000004,4994.925534902474,-3.4975766919339395,23.99096258255412,9.898152969078442
3.0,4994.569740134185,-3.6183185848482475,23.99065203034356,9.992553554693849
3.1,4994.20189087793,-3.7386664495297226,23.990338516336934,9.962670015325344
3.2,4993.822000634124,-3.859138336401073,23.990025939919295,9.855817331911172
3.3000000000000003,4993.430040958263,-3.9800550925715608,23.98971671597935,10.025969393657961
3.4000000000000004,4993.0260250971105,-4.100262039134862,23.98940215355867,9.859882869431413
3.5,4992.609953951757,-4.221160779586442,23.989092802063446,9.93857230280266
3.6,4992.181809360088,-4.341730964052162,23.988780981705844,9.870122799279239
3.7,4991.741593509792,-4.46258595333073,23.98847130893524,9.821373201950394
3.8000000000000003,4991.289282025992,-4.58364363501416,23.988163165671732,9.848386738850248
3.9000000000000004,4990.824870430966,-4.7045881773713045,23.98785417486489,10.034616902280321
4.0,4990.3484032260785,-4.824755828881745,23.98753934113067,9.969597760439612
4.1000000000000005,4989.859905730683,-4.9451939887103755,23.987226547356666,10.029972173904557
4.2,4989.359377031213,-5.06537990926191,23.986911859349703,9.86602871531594
4.3,4988.8467955932965,-5.1862487606052134,23.986602315030016,9.861716947132924
4.4,4988.32212639799,-5.307135057119798,23.986292905991036,9.851585644204764
4.5,4987.7853664876375,-5.428063061718473,23.985983814819292,9.93635474456117
4.6000000000000005,4987.23653147399,-5.548637121493297,23.985672064037054,9.934676014871375
4.7,4986.675638731339,-5.669217641812446,23.985360365924564,10.040284280151667
4.800000000000001,4986.102709978912,-5.789357315098358,23.985045354377704,9.922018578984819
4.9,4985.517742632381,-5.909989526037741,23.984734053389275,10.036833000147285
5.0,4984.9207360267055,-6.0301424958943945,23.98441915012551,9.970098301693328
5.1000000000000005,4984.311700239301,-6.150573161836992,23.98410634064714,9.872730253678892
5.2,4983.690601113783,-6.271409259929921,23.983796586068273,9.864508499609524
5.300000000000001,4983.057416690999,-6.392279107276386,23.983487089444996,9.857132515734422
5.4,4982.412143772285,-6.51317917867552,23.98317782424147,9.957113599207108
5.5,4981.754801717113,-6.633661834631946,23.982865422155072,9.998664310817736
5.6000000000000005,4981.085420086044,-6.753970695859723,23.982551716424915,9.970739060733896
5.7,4980.404001774075,-6.874395453122414,23.982238886842882,9.835887436977572
5.800000000000001,4979.710512898359,-6.99538197324239,23.98193028819868,9.89144962575599
5.9,4979.004936981297,-7.116136279053645,23.981619946303933,9.941467484137112
6.0,4978.287296088804,-7.236681480930688,23.9813080351107,9.935382954632981
6.1000000000000005,4977.5575994344745,-7.35725151592198,23.980996314818142,9.921239298837703
6.2,4976.815842854616,-7.477879991742349,23.980685038279443,9.953572608199798
6.300000000000001,4976.062030195616,-7.598373098158634,23.9803727472908,9.988230797313513
6.4,4975.2961754794305,-7.7187211348349685,23.980059368909664,10.044925054746187
6.5,4974.518297808022,-7.838832201582792,23.9797442117596,9.955624300473788
6.6000000000000005,4973.728390437263,-7.959315123447564,23.979431856399597,9.876925163424099
6.7,4972.9264183915,-8.080125703102357,23.979121970206425,9.925783873294296
6.800000000000001,4972.1123755022345,-8.200731992608155,23.978810551082777,9.960793229233772
6.9,4971.286279311023,-8.321191741399952,23.978498033548856,9.823676905495049
7.0,4970.448108580238,-8.442222786512833,23.978189818007195,9.865211162403014
7.1000000000000005,4969.597843432189,-8.56308008596043,23.977880299338036,9.829284808783328
7.2,4968.735485089123,-8.68408668747697,23.977571907849732,9.945039976067449
7.300000000000001,4967.861050250694,-8.804609991158832,23.977259884570408,9.965786580645492
7.4,4966.974567435229,-8.9250462277916,23.976947210371268,9.865231262284155
7.5,4966.076020053854,-9.045901311169843,23.97663769107148,9.940495223246293
7.6000000000000005,4965.165402886106,-9.166441953926634,23.976325810382704,9.947773965316602
7.7,4964.242733198961,-9.286951698949489,23.976013701325115,9.909712240327698
7.800000000000001,4963.308004626791,-9.407619655109123,23.975702786445154,9.986406818451298
7.9,4962.361225280174,-9.527967186522313,23.975389465290924,9.96635539664921
8.0,4961.4024070259275,-9.648397808042398,23.975076773245316,9.96495466736754
8.1,4960.431545444513,-9.768833729910732,23.97476412514726,9.985398263757451
8.200000000000001,4959.448644561616,-9.889183837323058,23.974450835636198,9.89769961982113
8.3,4958.453690405011,-10.009899205653918,23.974140297649363,9.782807456116338
8.4,4957.446640776419,-10.131093279108589,23.97383336437702,9.924932103454209
8.5,4956.427501408478,-10.25169399010101,23.973521971977448,9.922218862787144
8.6,4955.396301430436,-10.372305481156669,23.97321066470516,9.89875194255154
8.700000000000001,4954.353035435714,-10.493014324121772,23.972900093701952,9.929134711674603
8.8,4953.297704920396,-10.613595892529286,23.97258856944654,9.927301580641034
8.9,4952.230315892807,-10.73418456957903,23.97227710270518,9.84972631261568
9.0,4951.150851844071,-10.85509631685006,23.971968069869526,9.974723370028366
9.1,4950.059322718824,-10.975486097565426,23.97165511528073,9.977519303115368
9.200000000000001,4948.955755225846,-11.095863671399286,23.971342072970195,9.999316835030543
9.3,4947.840154549283,-11.216149768863266,23.97102834676725,9.860569736551264
9.4,4946.71249634944,-11.337014139530565,23.97071897372173,10.116528270779995
9.5,4945.572805129373,-11.45681016867555,23.97040157003768,9.830948252437114
9.600000000000001,4944.421074764513,-11.57779704056817,23.970093126359227,9.872621324200649
9.700000000000001,4943.257254431648,-11.698609528022043,23.969783375197995,9.82022452192217
9.8,4942.081341946795,-11.819640081267965,23.96947526797405,10.044964658882357
9.9,4940.893373313843,-11.939732485943589,23.969160109581416,9.943661497575755
10.0,4939.69337433581,-12.060246984718283,23.968848129551528,9.892367910264557
10.100000000000001,4938.4813132347535,-12.180974947342557,23.968537758845823,9.940947126034194
10.200000000000001,4937.257189498198,-12.301499693800654,23.968225863978702,9.89510629553164
10.3,4936.021003751067,-12.422215159696583,23.967915407356806,10.003171219036492
10.4,4934.7727690279435,-12.542479211689827,23.96760156022347,9.892192500413552
10.5,4933.512484774926,-12.663205759588614,23.967291195021208,9.815145605585451
10.600000000000001,4932.240111820362,-12.784253244003708,23.966983247147066,10.017040398611286
10.700000000000001,4930.955676263388,-12.904457804113386,23.9666689648715,9.982502650955086
10.8,4929.659213072375,-13.024805925446843,23.966355766209603,10.053361435729943
10.9,4928.350729879543,-13.144857839176831,23.96604034437008,9.991464049298626
11.0,4927.030228609268,-13.265167475431667,23.965726864546426,10.011675359644896
11.100000000000001,4925.697700619383,-13.385392231028236,23.965412750597686,9.939370339647198
11.200000000000001,4924.353135095897,-13.505918148729997,23.965100905201865,9.900043747773422
11.3,4922.996508802584,-13.626607628299917,23.96479029366857,9.768056840759662
11.4,4921.627786050177,-13.74784733296527,23.964483823193298,9.863506307765068
11.5,4920.246959268314,-13.868688215718088,23.96417435801355,10.022147320117778
11.600000000000001,4918.854081524658,-13.988866565937645,23.963859915509527,9.9321861608028
11.700000000000001,4917.449167203082,-14.109419775753576,23.96354829551562,10.000384556151168
11.8,4916.032211817208,-14.229687850656543,23.96323453581317,9.903620825623092
11.9,4914.60320946095,-14.350359185196323,23.962923812049905,9.938845176839017
12.0,4913.162147347857,-14.470882986706004,23.962611983130945,9.841554099287507
12.100000000000001,4911.709012580825,-14.591812265723226,23.962303206696554,9.82807324181752
12.200000000000001,4910.243782099399,-14.71279727483211,23.96199485322088,9.915750012893422
12.3,4908.766471438575,-14.833415852110555,23.96168374890723,10.027517033113815
12.4,4907.277122269119,-14.95356744542855,23.96136913792973,10.035449139164387
12.5,4905.775759623006,-15.073685385115402,23.961054278084276,9.910372916529061
12.600000000000001,4904.262359110315,-15.194324779258595,23.960743342475755,9.92241741329525
12.700000000000001,4902.736897198449,-15.314913368388458,23.960432028973994,9.886129622217982
12.8,4901.199368882066,-15.435652870246052,23.9601218539931,10.033102856310116
12.9,4899.649797312856,-15.55577842225663,23.95980706776172,9.985013223238651
13.0,4898.088203180385,-15.676104136344362,23.959493790331212,9.956674791018532
13.100000000000001,4896.514570589878,-15.79654758349229,23.95918140201232,10.000145158472167
13.200000000000001,4894.9289027535815,-15.916809051325432,23.95886764982092,9.891838790456
13.3,4893.3311861950715,-16.03752202973845,23.958557295716226,9.949866035222522
13.4,4891.721410475487,-16.157992271768258,23.958245121020436,10.076275087006934
13.5,4890.099614140103,-16.27793434341257,23.957928980270516,9.838971552149934
13.600000000000001,4888.465774099821,-16.398866374023996,23.95762028486293,9.903640638401445
13.700000000000001,4886.819854379612,-16.51952794080284,23.957309560478045,10.055539252505703
13.8,4885.161900231744,-16.639554924435384,23.95699407031003,9.927452161578433
13.9,4883.491916680203,-16.760116016583382,23.956682598844232,9.962324104125226
14.0,4881.809884324573,-16.880531005581236,23.956370033279473,9.873889826435121
14.100000000000001,4880.115792039651,-17.001314604034594,23.956060242319282,9.985310520943308
14.200000000000001,4878.409644676955,-17.121632559022828,23.95574695556113,9.912188679455355
14.3,4876.691450284026,-17.242255210037534,23.955435962983472,9.8860379432893
14.4,4874.961188194602,-17.362986489398374,23.955125790878984,9.858804585711033
14.5,4873.218847319666,-17.48383092076294,23.954816473214656,9.973917742532649
14.600000000000001,4871.464446055515,-17.604194271613625,23.954503543902234,9.973359366812936
14.700000000000001,4869.698008366924,-17.724559409555756,23.954190632108716,0.0
14.8,4867.917452425969,-17.886559409555755,23.954190632108716,0.0
14.9,4866.1206964850135,-18.048559409555754,23.954190632108716,0.0
15.0,4864.307740544058,-18.210559409555753,23.954190632108716,0.0
15.100000000000001,4862.478584603103,-18.372559409555752,23.954190632108716,0.0
15.200000000000001,4860.633228662147,-18.53455940955575,23.954190632108716,0.0
15.3,4858.771672721192,-18.69655940955575,23.954190632108716,0.0
15.4,4856.893916780236,-18.85855940955575,23.954190632108716,0.0
15.5,4854.999960839281,-19.020559409555748,23.954190632108716,0.0
15.600000000000001,4853.089804898325,-19.182559409555747,23.954190632108716,0.0
15.700000000000001,4851.16344895737,-19.344559409555746,23.954190632108716,0.0
15.8,4849.220893016414,-19.506559409555745,23.954190632108716,0.0
15.9,4847.262137075459,-19.668559409555744,23.954190632108716,0.0
16.0,4845.287181134503,-19.830559409555743,23.954190632108716,0.0
16.1,4843.296025193547,-19.992559409555742,23.954190632108716,0.0
16.2,4841.288669252592,-20.15455940955574,23.954190632108716,0.0
16.3,4839.265113311636,-20.31655940955574,23.954190632108716,0.0
16.400000000000002,4837.22535737068,-20.47855940955574,23.954190632108716,0.0
16.5,4835.1694014297245,-20.64055940955574,23.954190632108716,0.0
16.6,4833.097245488769,-20.802559409555737,23.954190632108716,0.0
16.7,4831.008889547813,-20.964559409555736,23.954190632108716,0.0
16.8,4828.904333606857,-21.126559409555735,23.954190632108716,0.0
16.900000000000002,4826.783577665901,-21.288559409555734,23.954190632108716,0.0
17.0,4824.646621724945,-21.450559409555733,23.954190632108716,0.0
17.1,4822.493465783989,-21.612559409555733,23.954190632108716,0.0
17.2,4820.3241098430335,-21.77455940955573,23.954190632108716,0.0
17.3,4818.138553902078,-21.93655940955573,23.954190632108716,0.0
17.400000000000002,4815.936797961122,-22.09855940955573,23.954190632108716,0.0
17.5,4813.7188420201655,-22.26055940955573,23.954190632108716,0.0
17.6,4811.48468607921,-22.422559409555728,23.954190632108716,0.0
17.7,4809.234330138255,-22.584559409555727,23.954190632108716,0.0
17.8,4806.9677741973,-22.746559409555726,23.954190632108716,0.0
17.900000000000002,4804.685018256345,-22.908559409555725,23.954190632108716,0.0
18.0,4802.38606231539,-23.070559409555724,23.954190632108716,0.0
18.1,4800.070906374434,-23.232559409555723,23.954190632108716,0.0
18.2,4797.739550433479,-23.394559409555722,23.954190632108716,0.0
18.3,4795.391994492524,-23.55655940955572,23.954190632108716,0.0
18.400000000000002,4793.028238551568,-23.71855940955572,23.954190632108716,0.0
18.5,4790.648282610613,-23.88055940955572,23.954190632108716,0.0
18.6,4788.252126669658,-24.042559409555718,23.954190632108716,0.0
18.7,4785.839770728702,-24.204559409555717,23.954190632108716,0.0
18.8,4783.411214787747,-24.366559409555716,23.954190632108716,0.0
18.900000000000002,4780.966458846791,-24.528559409555715,23.954190632108716,0.0
19.0,4778.505502905836,-24.690559409555714,23.954190632108716,0.0
19.1,4776.02834696488,-24.852559409555713,23.954190632108716,0.0
19.200000000000003,4773.534991023925,-25.014559409555712,23.954190632108716,0.0
19.3,4771.025435082969,-25.17655940955571,23.954190632108716,0.0
19.400000000000002,4768.4996791420135,-25.33855940955571,23.954190632108716,0.0
19.5,4765.957723201058,-25.50055940955571,23.954190632108716,0.0
19.6,4763.399567260102,-25.66255940955571,23.954190632108716,0.0
19.700000000000003,4760.825211319147,-25.824559409555707,23.954190632108716,0.0
19.8,4758.234655378191,-25.986559409555706,23.954190632108716,0.0
19.900000000000002,4755.627899437235,-26.148559409555705,23.954190632108716,0.0
20.0,4753.004943496279,-26.310559409555704,23.954190632108716,0.0
20.1,4750.365787555324,-26.472559409555704,23.954190632108716,0.0
20.200000000000003,4747.710431614368,-26.634559409555703,23.954190632108716,0.0
20.3,4745.038875673412,-26.7965594095557,23.954190632108716,0.0
20.400000000000002,4742.351119732456,-26.9585594095557,23.954190632108716,0.0
20.5,4739.6471637915,-27.1205594095557,23.954190632108716,0.0
20.6,4736.927007850544,-27.2825594095557,23.954190632108716,0.0
20.700000000000003,4734.190651909588,-27.444559409555698,23.954190632108716,0.0
20.8,4731.438095968632,-27.606559409555697,23.954190632108716,0.0
20.900000000000002,4728.669340027676,-27.768559409555696,23.954190632108716,0.0
21.0,4725.884384086721,-27.930559409555695,23.954190632108716,0.0
21.1,4723.083228145766,-28.092559409555694,23.954190632108716,0.0
21.200000000000003,4720.265872204811,-28.254559409555693,23.954190632108716,0.0
21.3,4717.432316263856,-28.416559409555692,23.954190632108716,0.0
21.400000000000002,4714.5825603229005,-28.57855940955569,23.954190632108716,0.0
21.5,4711.716604381945,-28.74055940955569,23.954190632108716,0.0
21.6,4708.83444844099,-28.90255940955569,23.954190632108716,0.0
21.700000000000003,4705.936092500035,-29.064559409555688,23.954190632108716,0.0
21.8,4703.021536559079,-29.226559409555687,23.954190632108716,0.0
21.900000000000002,4700.090780618124,-29.388559409555686,23.954190632108716,0.0
22.0,4697.143824677169,-29.550559409555685,23.954190632108716,0.0
22.1,4694.180668736213,-29.712559409555684,23.954190632108716,0.0
22.200000000000003,4691.201312795258,-29.874559409555683,23.954190632108716,0.0
22.3,4688.205756854302,-30.036559409555682,23.954190632108716,0.0
22.400000000000002,4685.194000913347,-30.19855940955568,23.954190632108716,0.0
22.5,4682.166044972391,-30.36055940955568,23.954190632108716,0.0
22.6,4679.121889031436,-30.52255940955568,23.954190632108716,0.0
22.700000000000003,4676.06153309048,-30.68455940955568,23.954190632108716,0.0
22.8,4672.984977149525,-30.846559409555677,23.954190632108716,0.0
22.900000000000002,4669.892221208569,-31.008559409555676,23.954190632108716,0.0
23.0,4666.783265267613,-31.170559409555676,23.954190632108716,0.0
23.1,4663.658109326658,-31.332559409555675,23.954190632108716,0.0
23.200000000000003,4660.516753385702,-31.494559409555674,23.954190632108716,0.0
23.3,4657.359197444746,-31.656559409555673,23.954190632108716,0.0
23.400000000000002,4654.185441503791,-31.81855940955567,23.954190632108716,0.0
23.5,4650.995485562835,-31.98055940955567,23.954190632108716,0.0
23.6,4647.789329621879,-32.14255940955567,23.954190632108716,0.0
23.700000000000003,4644.566973680923,-32.30455940955567,23.954190632108716,0.0
23.8,4641.328417739967,-32.46655940955567,23.954190632108716,0.0
23.900000000000002,4638.0736617990115,-32.62855940955567,23.954190632108716,0.0
24.0,4634.802705858056,-32.79055940955567,23.954190632108716,0.0
24.1,4631.5155499171,-32.95255940955567,23.954190632108716,0.0
24.200000000000003,4628.212193976144,-33.11455940955567,23.954190632108716,0.0
24.3,4624.892638035188,-33.27655940955567,23.954190632108716,0.0
24.400000000000002,4621.556882094232,-33.438559409555666,23.954190632108716,0.0
24.5,4618.204926153277,-33.600559409555665,23.954190632108716,0.0
24.6,4614.836770212321,-33.762559409555664,23.954190632108716,0.0
24.700000000000003,4611.452414271366,-33.92455940955566,23.954190632108716,0.0
24.8,4608.051858330411,-34.08655940955566,23.954190632108716,0.0
24.900000000000002,4604.635102389456,-34.24855940955566,23.954190632108716,0.0
25.0,4601.202146448501,-34.41055940955566,23.954190632108716,0.0
25.1,4597.752990507545,-34.57255940955566,23.954190632108716,0.0
25.200000000000003,4594.28763456659,-34.73455940955566,23.954190632108716,0.0
25.3,4590.806078625635,-34.89655940955566,23.954190632108716,0.0
25.400000000000002,4587.308322684679,-35.058559409555656,23.954190632108716,0.0
25.5,4583.794366743724,-35.220559409555655,23.954190632108716,0.0
