Time[s],Pos[m],V[m/s],mass[kg],T[N]
0.0,5000.0,0.0,24.0,6.640705908494272
0.05,4999.9983208706,-0.06716516599795198,23.99989582471063,6.640705908494272
0.1,4999.993283484401,-0.13433027194351982,23.99979164942126,6.640705908494272
0.15000000000000002,4999.984887844406,-0.20149531783618216,23.999687474131893,6.640705908494272
0.2,4999.973133953618,-0.2686603036754177,23.999583298842524,6.640705908494272
0.25,4999.9580218150395,-0.33582522946070503,23.999479123553154,6.640705908494272
0.30000000000000004,4999.939551431673,-0.40299009519152285,23.999374948263785,6.640705908494272
0.35000000000000003,4999.917722806521,-0.4701549008673498,23.999270772974416,6.640705908494272
0.4,4999.892535942587,-0.5373196464876644,23.999166597685047,6.640705908494272
0.45,4999.863990842873,-0.6044843320519454,23.999062422395678,6.640705908494272
0.5,4999.832087510383,-0.6716489575596714,23.99895824710631,6.640705908494272
0.55,4999.796825948119,-0.7388135230103209,23.99885407181694,6.640705908494272
0.6000000000000001,4999.758206159083,-0.8059780284033726,23.99874989652757,6.640705908494272
0.65,4999.716228146279,-0.8731424737383051,23.9986457212382,6.640705908494272
0.7000000000000001,4999.6708919127095,-0.940306859014597,23.998541545948832,6.640705908494272
0.75,4999.622197461378,-1.0074711842317268,23.998437370659463,6.640705908494272
0.8,4999.570144795287,-1.074635449389173,23.998333195370094,6.640705908494272
0.8500000000000001,4999.51473391744,-1.1417996544864144,23.998229020080725,6.640705908494272
0.9,4999.45596483084,-1.2089637995229294,23.998124844791356,6.640705908494272
0.9500000000000001,4999.393837538489,-1.2761278844981967,23.998020669501987,6.640705908494272
1.0,4999.328352043391,-1.3432919094116946,23.997916494212618,6.640705908494272
1.05,4999.2595083485485,-1.4104558742629019,23.99781231892325,6.640705908494272
1.1,4999.187306456965,-1.477619779051297,23.99770814363388,6.640705908494272
1.1500000000000001,4999.111746371645,-1.5447836237763586,23.99760396834451,6.640705908494272
1.2000000000000002,4999.032828095589,-1.611947408437565,23.99749979305514,6.640705908494272
1.25,4998.950551631802,-1.6791111330343946,23.997395617765772,6.640705908494272
1.3,4998.864916983287,-1.7462747975663262,23.997291442476403,6.640705908494272
1.35,4998.775924153047,-1.8134384020328382,23.997187267187034,6.640705908494272
1.4000000000000001,4998.683573144085,-1.8806019464334092,23.997083091897665,6.640705908494272
1.4500000000000002,4998.587863959405,-1.9477654307675174,23.996978916608295,6.640705908494272
1.5,4998.48879660201,-2.0149288550346416,23.996874741318926,6.640705908494272
1.55,4998.386371074903,-2.08209221923426,23.996770566029557,6.640705908494272
1.6,4998.280587381088,-2.1492555233658512,23.996666390740188,6.640705908494272
1.6500000000000001,4998.171445523568,-2.2164187674288938,23.99656221545082,6.640705908494272
1.7000000000000002,4998.058945505346,-2.283581951422866,23.99645804016145,6.640705908494272
1.75,4997.943087329427,-2.3507450753472465,23.99635386487208,6.640705908494272
1.8,4997.823870998813,-2.4179081392015136,23.99624968958271,6.640705908494272
1.85,4997.701296516508,-2.4850711429851455,23.996145514293342,6.640705908494272
1.9000000000000001,4997.575363885515,-2.552234086697621,23.996041339003973,6.640705908494272
1.9500000000000002,4997.446073108838,-2.619396970338418,23.995937163714604,6.640705908494272
2.0,4997.313424189482,-2.6865597939070156,23.995832988425235,6.640705908494272
2.0500000000000003,4997.17741713045,-2.753722557402892,23.995728813135866,6.640705908494272
2.1,4997.038051934744,-2.8208852608255253,23.995624637846497,6.640705908494272
2.15,4996.895328605368,-2.8880479041743943,23.995520462557128,6.640705908494272
2.2,4996.749247145328,-2.955210487448977,23.99541628726776,6.640705908494272
2.25,4996.599807557625,-3.0223730106487516,23.99531211197839,6.640705908494272
2.3000000000000003,4996.447009845265,-3.0895354737731973,23.99520793668902,6.640705908494272
2.35,4996.290854011249,-3.156697876821792,23.99510376139965,6.640705908494272
2.4000000000000004,4996.131340058584,-3.223860219794014,23.994999586110282,6.640705908494272
2.45,4995.968467990272,-3.291022502689341,23.994895410820913,6.640705908494272
2.5,4995.8022378093165,-3.3581847255072526,23.994791235531544,6.640705908494272
2.5500000000000003,4995.632649518722,-3.4253468882472267,23.994687060242175,6.640705908494272
2.6,4995.459703121493,-3.4925089909087412,23.994582884952806,6.640705908494272
2.6500000000000004,4995.283398620632,-3.559671033491275,23.994478709663436,6.640705908494272
2.7,4995.103736019145,-3.626833015994306,23.994374534374067,6.640705908494272
2.75,4994.920715320034,-3.6939949384173123,23.994270359084698,6.640705908494272
2.8000000000000003,4994.734336526304,-3.761156800759773,23.99416618379533,6.640705908494272
2.85,4994.544599640959,-3.828318603021166,23.99406200850596,6.640705908494272
2.9000000000000004,4994.351504667003,-3.895480345200969,23.99395783321659,6.640705908494272
2.95,4994.155051607439,-3.9626420272986613,23.99385365792722,6.640705908494272
3.0,4993.955240465274,-4.02980364931372,23.993749482637853,6.640705908494272
3.0500000000000003,4993.75207124351,-4.0969652112456245,23.993645307348483,6.640705908494272
3.1,4993.545543945151,-4.164126713093853,23.993541132059114,6.640705908494272
3.1500000000000004,4993.335658573202,-4.231288154857883,23.993436956769745,6.640705908494272
3.2,4993.122415130667,-4.298449536537193,23.993332781480376,6.640705908494272
3.25,4992.905813620549,-4.365610858131261,23.993228606191007,6.640705908494272
3.3000000000000003,4992.685854045855,-4.432772119639567,23.993124430901638,6.640705908494272
3.35,4992.462536409587,-4.499933321061587,23.99302025561227,6.640705908494272
3.4000000000000004,4992.235860714751,-4.5670944623968,23.9929160803229,6.640705908494272
3.45,4992.00582696435,-4.634255543644684,23.99281190503353,6.640705908494272
3.5,4991.772435161388,-4.701416564804719,23.99270772974416,6.640705908494272
3.5500000000000003,4991.535685308871,-4.76857752587638,23.992603554454792,6.640705908494272
3.6,4991.295577409802,-4.835738426859147,23.992499379165423,6.640705908494272
3.6500000000000004,4991.0521114671865,-4.902899267752499,23.992395203876054,6.640705908494272
3.7,4990.805287484029,-4.970060048555912,23.992291028586685,6.640705908494272
3.75,4990.555105463332,-5.037220769268866,23.992186853297316,6.640705908494272
3.8000000000000003,4990.301565408103,-5.1043814298908385,23.992082678007947,6.640705908494272
3.85,4990.044667321345,-5.171542030421308,23.991978502718577,6.640705908494272
3.9000000000000004,4989.784411206062,-5.238702570859752,23.99187432742921,6.640705908494272
3.95,4989.52079706526,-5.30586305120565,23.99177015213984,6.640705908494272
4.0,4989.253824901943,-5.373023471458478,23.99166597685047,6.640705908494272
4.05,4988.983494719116,-5.440183831617716,23.9915618015611,6.640705908494272
4.1000000000000005,4988.709806519782,-5.507344131682841,23.991457626271732,6.640705908494272
4.15,4988.432760306949,-5.574504371653332,23.991353450982363,6.640705908494272
4.2,4988.1523560836185,-5.641664551528667,23.991249275692994,6.640705908494272
4.25,4987.868593852797,-5.708824671308323,23.991145100403624,6.640705908494272
4.3,4987.581473617489,-5.7759847309917784,23.991040925114255,6.640705908494272
4.3500000000000005,4987.290995380699,-5.843144730578513,23.990936749824886,6.640705908494272
4.4,4986.997159145432,-5.910304670068003,23.990832574535517,6.640705908494272
4.45,4986.699964914694,-5.977464549459727,23.990728399246148,6.640705908494272
4.5,4986.399412691488,-6.044624368753164,23.99062422395678,0.0
4.55,4986.09515647305,-6.125624368753164,23.99062422395678,0.0
4.6000000000000005,4985.786850254613,-6.206624368753165,23.99062422395678,0.0
4.65,4985.474494036175,-6.287624368753165,23.99062422395678,0.0
4.7,4985.158087817737,-6.368624368753165,23.99062422395678,0.0
4.75,4984.8376315993,-6.449624368753166,23.99062422395678,0.0
4.800000000000001,4984.513125380862,-6.530624368753166,23.99062422395678,0.0
4.8500000000000005,4984.184569162425,-6.611624368753167,23.99062422395678,0.0
4.9,4983.851962943987,-6.692624368753167,23.99062422395678,0.0
4.95,4983.51530672555,-6.773624368753167,23.99062422395678,0.0
5.0,4983.174600507112,-6.854624368753168,23.99062422395678,0.0
5.050000000000001,4982.829844288674,-6.935624368753168,23.99062422395678,0.0
5.1000000000000005,4982.4810380702365,-7.016624368753169,23.99062422395678,0.0
5.15,4982.128181851799,-7.097624368753169,23.99062422395678,0.0
5.2,4981.771275633361,-7.1786243687531694,23.99062422395678,0.0
5.25,4981.410319414924,-7.25962436875317,23.99062422395678,0.0
5.300000000000001,4981.045313196486,-7.34062436875317,23.99062422395678,0.0
5.3500000000000005,4980.6762569780485,-7.421624368753171,23.99062422395678,0.0
5.4,4980.303150759611,-7.502624368753171,23.99062422395678,0.0
5.45,4979.925994541173,-7.5836243687531715,23.99062422395678,0.0
5.5,4979.544788322735,-7.664624368753172,23.99062422395678,0.0
5.550000000000001,4979.159532104298,-7.745624368753172,23.99062422395678,0.0
5.6000000000000005,4978.77022588586,-7.826624368753173,23.99062422395678,0.0
5.65,4978.376869667422,-7.907624368753173,23.99062422395678,0.0
5.7,4977.9794634489845,-7.9886243687531735,23.99062422395678,0.0
5.75,4977.578007230547,-8.069624368753173,23.99062422395678,0.0
5.800000000000001,4977.172501012109,-8.150624368753173,23.99062422395678,0.0
5.8500000000000005,4976.7629447936715,-8.231624368753172,23.99062422395678,0.0
5.9,4976.349338575234,-8.312624368753172,23.99062422395678,0.0
5.95,4975.931682356796,-8.393624368753171,23.99062422395678,0.0
6.0,4975.509976138358,-8.47462436875317,23.99062422395678,0.0
6.050000000000001,4975.0842199199205,-8.55562436875317,23.99062422395678,0.0
6.1000000000000005,4974.654413701483,-8.63662436875317,23.99062422395678,0.0
6.15,4974.220557483045,-8.71762436875317,23.99062422395678,0.0
6.2,4973.782651264607,-8.798624368753169,23.99062422395678,0.0
6.25,4973.3406950461695,-8.879624368753168,23.99062422395678,0.0
6.300000000000001,4972.894688827731,-8.960624368753168,23.99062422395678,0.0
6.3500000000000005,4972.444632609294,-9.041624368753167,23.99062422395678,0.0
6.4,4971.990526390856,-9.122624368753167,23.99062422395678,0.0
6.45,4971.532370172418,-9.203624368753166,23.99062422395678,0.0
6.5,4971.07016395398,-9.284624368753166,23.99062422395678,0.0
6.550000000000001,4970.603907735543,-9.365624368753165,23.99062422395678,0.0
6.6000000000000005,4970.133601517105,-9.446624368753165,23.99062422395678,0.0
6.65,4969.659245298667,-9.527624368753164,23.99062422395678,0.0
6.7,4969.180839080229,-9.608624368753164,23.99062422395678,0.0
6.75,4968.698382861791,-9.689624368753163,23.99062422395678,0.0
6.800000000000001,4968.211876643353,-9.770624368753163,23.99062422395678,0.0
6.8500000000000005,4967.721320424916,-9.851624368753162,23.99062422395678,0.0
6.9,4967.2267142064775,-9.932624368753162,23.99062422395678,0.0
6.95,4966.72805798804,-10.013624368753161,23.99062422395678,0.0
7.0,4966.225351769602,-10.094624368753161,23.99062422395678,0.0
7.050000000000001,4965.718595551164,-10.17562436875316,23.99062422395678,0.0
7.1000000000000005,4965.207789332727,-10.25662436875316,23.99062422395678,0.0
7.15,4964.692933114289,-10.33762436875316,23.99062422395678,0.0
7.2,4964.174026895852,-10.418624368753159,23.99062422395678,0.0
7.25,4963.651070677414,-10.499624368753159,23.99062422395678,0.0
7.300000000000001,4963.124064458977,-10.580624368753158,23.99062422395678,0.0
7.3500000000000005,4962.593008240539,-10.661624368753158,23.99062422395678,0.0
7.4,4962.057902022102,-10.742624368753157,23.99062422395678,0.0
7.45,4961.518745803664,-10.823624368753157,23.99062422395678,0.0
7.5,4960.975539585227,-10.904624368753156,23.99062422395678,0.0
7.550000000000001,4960.428283366789,-10.985624368753156,23.99062422395678,0.0
7.6000000000000005,4959.876977148352,-11.066624368753155,23.99062422395678,0.0
7.65,4959.321620929914,-11.147624368753155,23.99062422395678,0.0
7.7,4958.762214711477,-11.228624368753154,23.99062422395678,0.0
7.75,4958.198758493039,-11.309624368753154,23.99062422395678,0.0
7.800000000000001,4957.631252274602,-11.390624368753153,23.99062422395678,0.0
7.8500000000000005,4957.059696056164,-11.471624368753153,23.99062422395678,0.0
7.9,4956.484089837727,-11.552624368753152,23.99062422395678,0.0
7.95,4955.904433619289,-11.633624368753152,23.99062422395678,0.0
8.0,4955.320727400852,-11.714624368753151,23.99062422395678,0.0
8.05,4954.732971182414,-11.79562436875315,23.99062422395678,0.0
8.1,4954.141164963977,-11.87662436875315,23.99062422395678,0.0
8.15,4953.545308745539,-11.95762436875315,23.99062422395678,0.0
8.200000000000001,4952.945402527102,-12.03862436875315,23.99062422395678,0.0
8.25,4952.341446308664,-12.119624368753149,23.99062422395678,0.0
8.3,4951.733440090226,-12.200624368753148,23.99062422395678,0.0
8.35,4951.121383871789,-12.281624368753148,23.99062422395678,0.0
8.4,4950.505277653351,-12.362624368753147,23.99062422395678,0.0
8.450000000000001,4949.885121434913,-12.443624368753147,23.99062422395678,0.0
8.5,4949.260915216476,-12.524624368753146,23.99062422395678,0.0
8.55,4948.632658998038,-12.605624368753146,23.99062422395678,0.0
8.6,4948.000352779601,-12.686624368753145,23.99062422395678,0.0
8.65,4947.363996561163,-12.767624368753145,23.99062422395678,0.0
8.700000000000001,4946.723590342725,-12.848624368753145,23.99062422395678,0.0
8.75,4946.0791341242875,-12.929624368753144,23.99062422395678,0.0
8.8,4945.43062790585,-13.010624368753144,23.99062422395678,0.0
8.85,4944.778071687412,-13.091624368753143,23.99062422395678,0.0
8.9,4944.121465468975,-13.172624368753143,23.99062422395678,0.0
8.950000000000001,4943.460809250537,-13.253624368753142,23.99062422395678,0.0
9.0,4942.796103032099,-13.334624368753142,23.99062422395678,0.0
9.05,4942.1273468136615,-13.415624368753141,23.99062422395678,0.0
9.1,4941.454540595224,-13.49662436875314,23.99062422395678,0.0
9.15,4940.777684376786,-13.57762436875314,23.99062422395678,0.0
9.200000000000001,4940.096778158349,-13.65862436875314,23.99062422395678,0.0
9.25,4939.411821939911,-13.73962436875314,23.99062422395678,0.0
9.3,4938.722815721473,-13.820624368753139,23.99062422395678,0.0
9.35,4938.029759503035,-13.901624368753138,23.99062422395678,0.0
9.4,4937.332653284598,-13.982624368753138,23.99062422395678,0.0
9.450000000000001,4936.63149706616,-14.063624368753137,23.99062422395678,0.0
9.5,4935.926290847722,-14.144624368753137,23.99062422395678,0.0
9.55,4935.217034629284,-14.225624368753136,23.99062422395678,0.0
9.600000000000001,4934.503728410847,-14.306624368753136,23.99062422395678,0.0
9.65,4933.786372192409,-14.387624368753135,23.99062422395678,0.0
9.700000000000001,4933.064965973971,-14.468624368753135,23.99062422395678,0.0
9.75,4932.339509755533,-14.549624368753134,23.99062422395678,0.0
9.8,4931.6100035370955,-14.630624368753134,23.99062422395678,0.0
9.850000000000001,4930.8764473186575,-14.711624368753133,23.99062422395678,0.0
9.9,4930.13884110022,-14.792624368753133,23.99062422395678,0.0
9.950000000000001,4929.397184881782,-14.873624368753132,23.99062422395678,0.0
10.0,4928.651478663344,-14.954624368753132,23.99062422395678,0.0
10.05,4927.901722444906,-15.035624368753131,23.99062422395678,0.0
10.100000000000001,4927.147916226469,-15.116624368753131,23.99062422395678,0.0
10.15,4926.390060008031,-15.19762436875313,23.99062422395678,0.0
10.200000000000001,4925.628153789593,-15.27862436875313,23.99062422395678,0.0
10.25,4924.862197571155,-15.35962436875313,23.99062422395678,0.0
10.3,4924.092191352717,-15.440624368753129,23.99062422395678,0.0
10.350000000000001,4923.318135134279,-15.521624368753129,23.99062422395678,0.0
10.4,4922.5400289158415,-15.602624368753128,23.99062422395678,0.0
10.450000000000001,4921.757872697403,-15.683624368753128,23.99062422395678,0.0
10.5,4920.971666478966,-15.764624368753127,23.99062422395678,0.0
10.55,4920.1814102605285,-15.845624368753127,23.99062422395678,0.0
10.600000000000001,4919.387104042091,-15.926624368753126,23.99062422395678,0.0
10.65,4918.588747823654,-16.007624368753127,23.99062422395678,0.0
10.700000000000001,4917.786341605216,-16.088624368753127,23.99062422395678,0.0
10.75,4916.979885386779,-16.169624368753126,23.99062422395678,0.0
10.8,4916.169379168341,-16.250624368753126,23.99062422395678,0.0
10.850000000000001,4915.354822949904,-16.331624368753126,23.99062422395678,0.0
10.9,4914.536216731466,-16.412624368753125,23.99062422395678,0.0
10.950000000000001,4913.713560513029,-16.493624368753125,23.99062422395678,0.0
11.0,4912.886854294591,-16.574624368753124,23.99062422395678,0.0
11.05,4912.056098076154,-16.655624368753124,23.99062422395678,0.0
11.100000000000001,4911.221291857716,-16.736624368753123,23.99062422395678,0.0
11.15,4910.382435639279,-16.817624368753123,23.99062422395678,0.0
11.200000000000001,4909.539529420841,-16.898624368753122,23.99062422395678,0.0
11.25,4908.692573202404,-16.97962436875312,23.99062422395678,0.0
11.3,4907.841566983966,-17.06062436875312,23.99062422395678,0.0
11.350000000000001,4906.986510765529,-17.14162436875312,23.99062422395678,0.0
11.4,4906.127404547091,-17.22262436875312,23.99062422395678,0.0
11.450000000000001,4905.264248328654,-17.30362436875312,23.99062422395678,0.0
11.5,4904.397042110216,-17.38462436875312,23.99062422395678,0.0
11.55,4903.5257858917785,-17.46562436875312,23.99062422395678,0.0
11.600000000000001,4902.650479673341,-17.54662436875312,23.99062422395678,0.0
11.65,4901.771123454903,-17.627624368753118,23.99062422395678,0.0
11.700000000000001,4900.8877172364655,-17.708624368753117,23.99062422395678,0.0
11.75,4900.000261018028,-17.789624368753117,23.99062422395678,0.0
11.8,4899.10875479959,-17.870624368753116,23.99062422395678,0.0
11.850000000000001,4898.213198581153,-17.951624368753116,23.99062422395678,0.0
11.9,4897.313592362715,-18.032624368753115,23.99062422395678,0.0
11.950000000000001,4896.409936144278,-18.113624368753115,23.99062422395678,0.0
12.0,4895.50222992584,-18.194624368753114,23.99062422395678,0.0
12.05,4894.590473707402,-18.275624368753114,23.99062422395678,0.0
12.100000000000001,4893.674667488965,-18.356624368753113,23.99062422395678,0.0
12.15,4892.754811270527,-18.437624368753113,23.99062422395678,0.0
12.200000000000001,4891.830905052089,-18.518624368753112,23.99062422395678,0.0
12.25,4890.902948833652,-18.599624368753112,23.99062422395678,0.0
12.3,4889.970942615214,-18.68062436875311,23.99062422395678,0.0
12.350000000000001,4889.0348863967765,-18.76162436875311,23.99062422395678,0.0
12.4,4888.094780178339,-18.84262436875311,23.99062422395678,0.0
12.450000000000001,4887.150623959901,-18.92362436875311,23.99062422395678,0.0
12.5,4886.202417741463,-19.00462436875311,23.99062422395678,0.0
12.55,4885.250161523026,-19.08562436875311,23.99062422395678,0.0
12.600000000000001,4884.293855304588,-19.16662436875311,23.99062422395678,0.0
12.65,4883.33349908615,-19.247624368753108,23.99062422395678,0.0
12.700000000000001,4882.369092867712,-19.328624368753108,23.99062422395678,0.0
12.75,4881.400636649275,-19.409624368753107,23.99062422395678,0.0
12.8,4880.428130430837,-19.490624368753107,23.99062422395678,0.0
12.850000000000001,4879.4515742123995,-19.571624368753106,23.99062422395678,0.0
12.9,4878.4709679939615,-19.652624368753106,23.99062422395678,0.0
12.950000000000001,4877.486311775524,-19.733624368753105,23.99062422395678,0.0
13.0,4876.497605557086,-19.814624368753105,23.99062422395678,0.0
13.05,4875.5048493386485,-19.895624368753104,23.99062422395678,0.0
13.100000000000001,4874.5080431202105,-19.976624368753104,23.99062422395678,0.0
13.15,4873.507186901773,-20.057624368753103,23.99062422395678,0.0
13.200000000000001,4872.502280683335,-20.138624368753103,23.99062422395678,0.0
13.25,4871.493324464897,-20.219624368753102,23.99062422395678,0.0
13.3,4870.480318246459,-20.300624368753102,23.99062422395678,0.0
13.350000000000001,4869.463262028022,-20.3816243687531,23.99062422395678,0.0
13.4,4868.442155809584,-20.4626243687531,23.99062422395678,0.0
