Time[s],Pos[m],V[m/s],mass[kg],T[N]
0.0,5000.0,0.0,24.0,17.13653424537843
0.05,4999.998867531158,-0.04529868704072205,23.99973117264363,17.13653424537843
0.1,4999.995470137961,-0.0905969741793258,23.999462345287263,17.13653424537843
0.15000000000000002,4999.989807840405,-0.1358948614068523,23.999193517930895,17.13653424537843
0.2,4999.981880658485,-0.18119234871434228,23.998924690574526,17.13653424537843
0.25,4999.971688612199,-0.22648943609283617,23.998655863218158,17.13653424537843
0.30000000000000004,4999.959231721542,-0.27178612353337406,23.99838703586179,17.13653424537843
0.35000000000000003,4999.944510006511,-0.3170824110269958,23.99811820850542,17.13653424537843
0.4,4999.927523487105,-0.3623782985647409,23.997849381149052,17.13653424537843
0.45,4999.908272183321,-0.40767378613764865,23.997580553792684,17.13653424537843
0.5,4999.886756115157,-0.4529688737367579,23.997311726436315,17.13653424537843
0.55,4999.862975302613,-0.49826356135310734,23.997042899079947,17.13653424537843
0.6000000000000001,4999.836929765688,-0.5435578489777352,23.99677407172358,17.13653424537843
0.65,4999.808619524382,-0.5888517366016796,23.99650524436721,17.13653424537843
0.7000000000000001,4999.7780445986955,-0.6341452242159781,23.99623641701084,17.13653424537843
0.75,4999.745205008628,-0.6794383118116682,23.995967589654473,17.13653424537843
0.8,4999.710100774181,-0.7247309993797871,23.995698762298105,17.13653424537843
0.8500000000000001,4999.672731915357,-0.7700232869113716,23.995429934941736,17.13653424537843
0.9,4999.633098452157,-0.815315174397458,23.995161107585368,17.13653424537843
0.9500000000000001,4999.591200404585,-0.8606066618290829,23.994892280229,17.13653424537843
1.0,4999.547037792642,-0.9058977491972818,23.99462345287263,17.13653424537843
1.05,4999.500610636333,-0.9511884364930906,23.994354625516262,17.13653424537843
1.1,4999.45191895566,-0.9964787237075444,23.994085798159894,17.13653424537843
1.1500000000000001,4999.40096277063,-1.0417686108316784,23.993816970803525,17.13653424537843
1.2000000000000002,4999.347742101246,-1.0870580978565272,23.993548143447157,17.13653424537843
1.25,4999.292256967513,-1.1323471847731252,23.99327931609079,17.13653424537843
1.3,4999.234507389437,-1.1776358715725066,23.99301048873442,17.13653424537843
1.35,4999.174493387024,-1.2229241582457049,23.99274166137805,17.13653424537843
1.4000000000000001,4999.112214980281,-1.268212044783754,23.992472834021683,17.13653424537843
1.4500000000000002,4999.047672189215,-1.3134995311776867,23.992204006665315,17.13653424537843
1.5,4998.980865033833,-1.3587866174185361,23.991935179308946,17.13653424537843
1.55,4998.911793534143,-1.404073303497335,23.991666351952578,17.13653424537843
1.6,4998.840457710153,-1.4493595894051154,23.99139752459621,17.13653424537843
1.6500000000000001,4998.766857581872,-1.4946454751329095,23.99112869723984,17.13653424537843
1.7000000000000002,4998.690993169309,-1.5399309606717488,23.990859869883472,17.13653424537843
1.75,4998.612864492475,-1.5852160460126647,23.990591042527104,17.13653424537843
1.8,4998.532471571378,-1.6305007311466884,23.990322215170735,17.13653424537843
1.85,4998.44981442603,-1.6757850160648506,23.990053387814367,17.13653424537843
1.9000000000000001,4998.364893076441,-1.7210689007581819,23.989784560458,17.13653424537843
1.9500000000000002,4998.277707542624,-1.7663523852177123,23.98951573310163,17.13653424537843
2.0,4998.18825784459,-1.8116354694344718,23.98924690574526,17.13653424537843
2.0500000000000003,4998.096544002352,-1.85691815339949,23.988978078388893,17.13653424537843
2.1,4998.0025660359215,-1.9022004371037964,23.988709251032525,17.13653424537843
2.15,4997.906323965312,-1.9474823205384195,23.988440423676156,17.13653424537843
2.2,4997.807817810539,-1.9927638036943882,23.988171596319788,17.13653424537843
2.25,4997.707047591614,-2.038044886562731,23.98790276896342,17.13653424537843
2.3000000000000003,4997.604013328554,-2.083325569134476,23.98763394160705,17.13653424537843
2.35,4997.498715041373,-2.1286058514006503,23.987365114250682,17.13653424537843
2.4000000000000004,4997.391152750086,-2.1738857333522823,23.987096286894314,17.13653424537843
2.45,4997.281326474709,-2.2191652149803986,23.986827459537945,17.13653424537843
2.5,4997.16923623526,-2.2644442962760265,23.986558632181577,17.13653424537843
2.5500000000000003,4997.054882051754,-2.309722977230192,23.98628980482521,17.13653424537843
2.6,4996.938263944209,-2.355001257833922,23.98602097746884,17.13653424537843
2.6500000000000004,4996.819381932643,-2.4002791380782416,23.98575215011247,17.13653424537843
2.7,4996.698236037075,-2.445556617954177,23.985483322756103,17.13653424537843
2.75,4996.574826277521,-2.4908336974527536,23.985214495399735,17.13653424537843
2.8000000000000003,4996.449152674003,-2.5361103765649964,23.984945668043366,17.13653424537843
2.85,4996.3212152465385,-2.5813866552819302,23.984676840686998,17.13653424537843
2.9000000000000004,4996.1910140151485,-2.6266625335945792,23.98440801333063,17.13653424537843
2.95,4996.058548999853,-2.671938011493968,23.98413918597426,17.13653424537843
3.0,4995.9238202206725,-2.71721308897112,23.983870358617892,17.13653424537843
3.0500000000000003,4995.78682769763,-2.762487766017059,23.983601531261524,17.13653424537843
3.1,4995.647571450745,-2.807762042622808,23.983332703905155,17.13653424537843
3.1500000000000004,4995.506051500041,-2.85303591877939,23.983063876548787,17.13653424537843
3.2,4995.362267865541,-2.898309394477828,23.98279504919242,17.13653424537843
3.25,4995.216220567268,-2.943582469709144,23.98252622183605,17.13653424537843
3.3000000000000003,4995.067909625244,-2.9888551444643605,23.98225739447968,17.13653424537843
3.35,4994.917335059496,-3.0341274187344984,23.981988567123313,17.13653424537843
3.4000000000000004,4994.764496890046,-3.0793992925105798,23.981719739766945,17.13653424537843
3.45,4994.609395136919,-3.1246707657836255,23.981450912410576,17.13653424537843
3.5,4994.452029820142,-3.1699418385446565,23.981182085054208,17.13653424537843
3.5500000000000003,4994.29240095974,-3.2152125107846934,23.98091325769784,17.13653424537843
3.6,4994.130508575739,-3.260482782494756,23.98064443034147,17.13653424537843
3.6500000000000004,4993.966352688167,-3.305752653665865,23.980375602985102,17.13653424537843
3.7,4993.799933317049,-3.3510221242890394,23.980106775628734,17.13653424537843
3.75,4993.631250482414,-3.3962911943552987,23.979837948272365,17.13653424537843
3.8000000000000003,4993.460304204289,-3.441559863855662,23.979569120915997,17.13653424537843
3.85,4993.287094502704,-3.4868281327811474,23.97930029355963,17.13653424537843
3.9000000000000004,4993.1116213976875,-3.532096001122774,23.97903146620326,17.13653424537843
3.95,4992.933884909268,-3.57736346887156,23.97876263884689,17.13653424537843
4.0,4992.7538850574765,-3.6226305360185225,23.978493811490523,17.13653424537843
4.05,4992.571621862343,-3.6678972025546797,23.978224984134155,17.13653424537843
4.1000000000000005,4992.387095343898,-3.7131634684710484,23.977956156777786,17.13653424537843
4.15,4992.200305522173,-3.7584293337586456,23.977687329421418,17.13653424537843
4.2,4992.011252417199,-3.8036947984084883,23.97741850206505,17.13653424537843
4.25,4991.819936049009,-3.848959862411592,23.97714967470868,17.13653424537843
4.3,4991.626356437635,-3.8942245257589736,23.976880847352312,17.13653424537843
4.3500000000000005,4991.430513603111,-3.9394887884416483,23.976612019995944,17.13653424537843
4.4,4991.232407565469,-3.9847526504506314,23.976343192639575,17.13653424537843
4.45,4991.032038344743,-4.030016111776938,23.976074365283207,17.13653424537843
4.5,4990.829405960969,-4.075279172411583,23.97580553792684,17.13653424537843
4.55,4990.624510434181,-4.120541832345581,23.97553671057047,17.13653424537843
4.6000000000000005,4990.417351784413,-4.165804091569946,23.9752678832141,17.13653424537843
4.65,4990.207930031702,-4.2110659500756915,23.974999055857733,17.13653424537843
4.7,4989.996245196084,-4.256327407853832,23.974730228501365,17.13653424537843
4.75,4989.7822972975955,-4.301588464895381,23.974461401144996,17.13653424537843
4.800000000000001,4989.566086356273,-4.34684912119135,23.974192573788628,17.13653424537843
4.8500000000000005,4989.3476123921555,-4.392109376732753,23.97392374643226,17.13653424537843
4.9,4989.12687542528,-4.437369231510601,23.97365491907589,17.13653424537843
4.95,4988.903875475684,-4.482628685515907,23.973386091719522,17.13653424537843
5.0,4988.678612563407,-4.527887738739683,23.973117264363154,17.13653424537843
5.050000000000001,4988.451086708489,-4.573146391172941,23.972848437006785,17.13653424537843
5.1000000000000005,4988.22129793097,-4.61840464280669,23.972579609650417,17.13653424537843
5.15,4987.989246250889,-4.663662493631942,23.97231078229405,17.13653424537843
5.2,4987.754931688287,-4.7089199436397084,23.97204195493768,17.13653424537843
5.25,4987.518354263205,-4.754176992820998,23.97177312758131,17.13653424537843
5.300000000000001,4987.279513995685,-4.799433641166822,23.971504300224943,17.13653424537843
5.3500000000000005,4987.0384109057695,-4.8446898886681895,23.971235472868575,17.13653424537843
5.4,4986.7950450134995,-4.88994573531611,23.970966645512206,17.13653424537843
5.45,4986.5494163389185,-4.935201181101593,23.970697818155838,17.13653424537843
5.5,4986.30152490207,-4.9804562260156455,23.97042899079947,17.13653424537843
5.550000000000001,4986.051370722998,-5.025710870049277,23.9701601634431,17.13653424537843
5.6000000000000005,4985.798953821747,-5.0709651131934965,23.969891336086732,17.13653424537843
5.65,4985.54427421836,-5.116218955439311,23.969622508730364,17.13653424537843
5.7,4985.287331932885,-5.161472396777728,23.969353681373995,17.13653424537843
5.75,4985.028126985365,-5.206725437199754,23.969084854017627,17.13653424537843
5.800000000000001,4984.766659395847,-5.251978076696398,23.96881602666126,17.13653424537843
5.8500000000000005,4984.5029291843775,-5.297230315258664,23.96854719930489,17.13653424537843
5.9,4984.236936371003,-5.342482152877561,23.96827837194852,17.13653424537843
5.95,4983.968680975772,-5.3877335895440925,23.968009544592153,17.13653424537843
6.0,4983.698163018732,-5.432984625249266,23.967740717235785,17.13653424537843
6.050000000000001,4983.42538251993,-5.4782352599840864,23.967471889879416,17.13653424537843
6.1000000000000005,4983.150339499416,-5.5234854937395585,23.967203062523048,17.13653424537843
6.15,4982.873033977239,-5.568735326506688,23.96693423516668,17.13653424537843
6.2,4982.5934659734485,-5.6139847582764775,23.96666540781031,17.13653424537843
6.25,4982.311635508095,-5.659233789039933,23.966396580453942,17.13653424537843
6.300000000000001,4982.027542601228,-5.704482418788058,23.966127753097574,17.13653424537843
6.3500000000000005,4981.741187272899,-5.749730647511856,23.965858925741205,17.13653424537843
6.4,4981.45256954316,-5.79497847520233,23.965590098384837,17.13653424537843
6.45,4981.161689432063,-5.840225901850483,23.96532127102847,17.13653424537843
6.5,4980.868546959659,-5.885472927447319,23.9650524436721,17.13653424537843
6.550000000000001,4980.573142146002,-5.930719551983838,23.96478361631573,17.13653424537843
6.6000000000000005,4980.275475011145,-5.975965775451044,23.964514788959363,17.13653424537843
6.65,4979.975545575142,-6.0212115978399385,23.964245961602995,17.13653424537843
6.7,4979.6733538580465,-6.066457019141522,23.963977134246626,17.13653424537843
6.75,4979.368899879913,-6.111702039346796,23.963708306890258,17.13653424537843
6.800000000000001,4979.062183660797,-6.1569466584467625,23.96343947953389,17.13653424537843
6.8500000000000005,4978.753205220753,-6.202190876432421,23.96317065217752,17.13653424537843
6.9,4978.441964579839,-6.247434693294771,23.962901824821152,17.13653424537843
6.95,4978.12846175811,-6.2926781090248145,23.962632997464784,17.13653424537843
7.0,4977.8126967756225,-6.33792112361355,23.962364170108415,17.13653424537843
7.050000000000001,4977.494669652435,-6.383163737051977,23.962095342752047,17.13653424537843
7.1000000000000005,4977.174380408604,-6.428405949331094,23.96182651539568,17.13653424537843
7.15,4976.851829064188,-6.473647760441901,23.96155768803931,17.13653424537843
7.2,4976.527015639245,-6.518889170375395,23.96128886068294,17.13653424537843
7.25,4976.199940153836,-6.564130179122575,23.961020033326573,17.13653424537843
7.300000000000001,4975.87060262802,-6.609370786674439,23.960751205970205,17.13653424537843
7.3500000000000005,4975.539003081855,-6.654610993021984,23.960482378613836,17.13653424537843
7.4,4975.205141535404,-6.699850798156207,23.960213551257468,17.13653424537843
7.45,4974.869018008727,-6.7450902020681065,23.9599447239011,17.13653424537843
7.5,4974.530632521884,-6.790329204748677,23.95967589654473,17.13653424537843
7.550000000000001,4974.189985094939,-6.835567806188917,23.959407069188362,17.13653424537843
7.6000000000000005,4973.847075747954,-6.88080600637982,23.959138241831994,17.13653424537843
7.65,4973.501904500989,-6.926043805312384,23.958869414475625,17.13653424537843
7.7,4973.1544713741105,-6.971281202977603,23.958600587119257,17.13653424537843
7.75,4972.80477638738,-7.016518199366473,23.95833175976289,17.13653424537843
7.800000000000001,4972.452819560862,-7.061754794469988,23.95806293240652,17.13653424537843
7.8500000000000005,4972.098600914621,-7.1069909882791436,23.95779410505015,17.13653424537843
7.9,4971.7421204687225,-7.152226780784933,23.957525277693783,17.13653424537843
7.95,4971.383378243231,-7.1974621719783505,23.957256450337415,17.13653424537843
8.0,4971.022374258213,-7.24269716185039,23.956987622981046,17.13653424537843
8.05,4970.659108533735,-7.287931750392044,23.956718795624678,17.13653424537843
8.1,4970.293581089863,-7.333165937594306,23.95644996826831,17.13653424537843
8.15,4969.925791946665,-7.378399723448169,23.95618114091194,17.13653424537843
8.200000000000001,4969.555741124208,-7.4236331079446245,23.955912313555572,17.13653424537843
8.25,4969.18342864256,-7.468866091074665,23.955643486199204,17.13653424537843
8.3,4968.80885452179,-7.514098672829283,23.955374658842835,17.13653424537843
8.35,4968.432018781967,-7.5593308531994685,23.955105831486467,17.13653424537843
8.4,4968.05292144316,-7.604562632176214,23.9548370041301,17.13653424537843
8.450000000000001,4967.671562525439,-7.64979400975051,23.95456817677373,17.13653424537843
8.5,4967.287942048875,-7.695024985913347,23.95429934941736,17.13653424537843
8.55,4966.902060033539,-7.740255560655714,23.954030522060993,17.13653424537843
8.6,4966.513916499501,-7.785485733968604,23.953761694704625,17.13653424537843
8.65,4966.1235114668325,-7.830715505843004,23.953492867348256,17.13653424537843
8.700000000000001,4965.730844955607,-7.875944876269903,23.953224039991888,17.13653424537843
8.75,4965.335916985896,-7.921173845240292,23.95295521263552,17.13653424537843
8.8,4964.9387275777735,-7.966402412745159,23.95268638527915,17.13653424537843
8.85,4964.539276751313,-8.011630578775494,23.952417557922782,17.13653424537843
8.9,4964.137564526588,-8.056858343322281,23.952148730566414,17.13653424537843
8.950000000000001,4963.733590923673,-8.102085706376512,23.951879903210045,17.13653424537843
9.0,4963.327355962642,-8.147312667929173,23.951611075853677,17.13653424537843
9.05,4962.918859663572,-8.19253922797125,23.95134224849731,17.13653424537843
9.1,4962.508102046538,-8.237765386493733,23.95107342114094,17.13653424537843
9.15,4962.095083131615,-8.282991143487605,23.95080459378457,17.13653424537843
9.200000000000001,4961.679802938881,-8.328216498943855,23.950535766428203,17.13653424537843
9.25,4961.262261488413,-8.373441452853466,23.950266939071835,17.13653424537843
9.3,4960.842458800288,-8.418666005207427,23.949998111715466,17.13653424537843
9.35,4960.420394894585,-8.463890155996722,23.949729284359098,17.13653424537843
9.4,4959.996069791382,-8.509113905212336,23.94946045700273,17.13653424537843
9.450000000000001,4959.569483510757,-8.554337252845254,23.94919162964636,17.13653424537843
9.5,4959.140636072791,-8.599560198886461,23.948922802289992,17.13653424537843
9.55,4958.709527497562,-8.64478274332694,23.948653974933624,17.13653424537843
9.600000000000001,4958.276157805151,-8.690004886157677,23.948385147577255,17.13653424537843
9.65,4957.84052701564,-8.735226627369654,23.948116320220887,17.13653424537843
9.700000000000001,4957.402635149108,-8.780447966953854,23.94784749286452,17.13653424537843
9.75,4956.962482225638,-8.82566890490126,23.94757866550815,17.13653424537843
9.8,4956.520068265312,-8.870889441202856,23.94730983815178,17.13653424537843
9.850000000000001,4956.075393288213,-8.916109575849623,23.947041010795413,17.13653424537843
9.9,4955.628457314422,-8.961329308832543,23.946772183439045,17.13653424537843
9.950000000000001,4955.179260364024,-9.006548640142599,23.946503356082676,17.13653424537843
10.0,4954.727802457102,-9.051767569770771,23.946234528726308,17.13653424537843
10.05,4954.274083613742,-9.096986097708042,23.94596570136994,17.13653424537843
10.100000000000001,4953.818103854027,-9.142204223945392,23.94569687401357,17.13653424537843
10.15,4953.359863198043,-9.1874219484738,23.945428046657202,17.13653424537843
10.200000000000001,4952.899361665875,-9.232639271284247,23.945159219300834,17.13653424537843
10.25,4952.43659927761,-9.277856192367715,23.944890391944465,17.13653424537843
10.3,4951.9715760533345,-9.32307271171518,23.944621564588097,17.13653424537843
10.350000000000001,4951.504292013135,-9.368288829317626,23.94435273723173,17.13653424537843
10.4,4951.034747177098,-9.41350454516603,23.94408390987536,17.13653424537843
10.450000000000001,4950.562941565314,-9.458719859251369,23.94381508251899,17.13653424537843
10.5,4950.088875197869,-9.503934771564623,23.943546255162623,17.13653424537843
10.55,4949.612548094853,-9.549149282096769,23.943277427806255,17.13653424537843
10.600000000000001,4949.1339602763555,-9.594363390838787,23.943008600449886,17.13653424537843
10.65,4948.653111762465,-9.639577097781652,23.942739773093518,17.13653424537843
10.700000000000001,4948.170002573273,-9.684790402916343,23.94247094573715,17.13653424537843
10.75,4947.68463272887,-9.730003306233836,23.94220211838078,17.13653424537843
10.8,4947.197002249347,-9.775215807725107,23.941933291024412,17.13653424537843
10.850000000000001,4946.707111154795,-9.820427907381134,23.941664463668044,17.13653424537843
10.9,4946.2149594653065,-9.865639605192891,23.941395636311675,17.13653424537843
10.950000000000001,4945.720547200974,-9.910850901151356,23.941126808955307,17.13653424537843
11.0,4945.223874381889,-9.956061795247503,23.94085798159894,17.13653424537843
11.05,4944.7249410281465,-10.001272287472307,23.94058915424257,17.13653424537843
11.100000000000001,4944.22374715984,-10.046482377816742,23.9403203268862,17.13653424537843
11.15,4943.720292797063,-10.091692066271785,23.940051499529833,17.13653424537843
11.200000000000001,4943.2145779599105,-10.136901352828408,23.939782672173465,17.13653424537843
11.25,4942.706602668478,-10.182110237477586,23.939513844817096,17.13653424537843
11.3,4942.1963669428615,-10.227318720210292,23.939245017460728,17.13653424537843
11.350000000000001,4941.683870803156,-10.272526801017499,23.93897619010436,17.13653424537843
11.4,4941.169114269459,-10.317734479890179,23.93870736274799,17.13653424537843
11.450000000000001,4940.652097361866,-10.362941756819307,23.938438535391622,17.13653424537843
11.5,4940.132820100476,-10.408148631795854,23.938169708035254,17.13653424537843
11.55,4939.611282505386,-10.453355104810791,23.937900880678885,17.13653424537843
11.600000000000001,4939.087484596695,-10.498561175855093,23.937632053322517,17.13653424537843
11.65,4938.5614263945,-10.543766844919729,23.93736322596615,17.13653424537843
11.700000000000001,4938.033107918902,-10.58897211199567,23.93709439860978,17.13653424537843
11.75,4937.50252919,-10.634176977073887,23.93682557125341,17.13653424537843
11.8,4936.969690227895,-10.67938144014535,23.936556743897043,17.13653424537843
11.850000000000001,4936.434591052686,-10.724585501201032,23.936287916540675,17.13653424537843
11.9,4935.897231684476,-10.769789160231902,23.936019089184306,17.13653424537843
